# OpenSignals Text File Format. Version 1
# {"20:19:07:00:81:AD": {"position": 0, "device": "bitalino_rev", "device name": "20:19:07:00:81:AD", "device connection": "BTH20:19:07:00:81:AD", "sampling rate": 10, "resolution": [4, 1, 1, 1, 1, 10], "firmware version": 1282, "comments": "", "keywords": "", "mode": 0, "sync interval": 2, "date": "2025-3-17", "time": "11:34:38.530", "channels": [1], "sensor": ["EDABITREV"], "label": ["A1"], "column": ["nSeq", "I1", "I2", "O1", "O2", "A1"], "special": [{}], "digital IO": [0, 0, 1, 1], "convertedValues": 0}}
# EndOfHeader
0	0	0	0	0	265	
1	0	0	0	0	266	
2	0	0	0	0	266	
3	0	0	0	0	266	
4	0	0	0	0	267	
5	0	0	0	0	267	
6	0	0	0	0	268	
7	0	0	0	0	269	
8	0	0	0	0	269	
9	0	0	0	0	270	
10	0	0	0	0	271	
11	0	0	0	0	271	
12	0	0	0	0	271	
13	0	0	0	0	272	
14	0	0	0	0	272	
15	0	0	0	0	273	
0	0	0	0	0	272	
1	0	0	0	0	272	
2	0	0	0	0	272	
3	0	0	0	0	271	
4	0	0	0	0	271	
5	0	0	0	0	271	
6	0	0	0	0	272	
7	0	0	0	0	271	
8	0	0	0	0	271	
9	0	0	0	0	271	
10	0	0	0	0	271	
11	0	0	0	0	270	
12	0	0	0	0	270	
13	0	0	0	0	270	
14	0	0	0	0	270	
15	0	0	0	0	270	
0	0	0	0	0	270	
1	0	0	0	0	270	
2	0	0	0	0	270	
3	0	0	0	0	271	
4	0	0	0	0	271	
5	0	0	0	0	271	
6	0	0	0	0	271	
7	0	0	0	0	272	
8	0	0	0	0	272	
9	0	0	0	0	272	
10	0	0	0	0	271	
11	0	0	0	0	271	
12	0	0	0	0	271	
13	0	0	0	0	274	
14	0	0	0	0	277	
15	0	0	0	0	277	
0	0	0	0	0	277	
1	0	0	0	0	278	
2	0	0	0	0	278	
3	0	0	0	0	278	
4	0	0	0	0	279	
5	0	0	0	0	279	
6	0	0	0	0	279	
7	0	0	0	0	279	
8	0	0	0	0	279	
9	0	0	0	0	279	
10	0	0	0	0	279	
11	0	0	0	0	280	
12	0	0	0	0	280	
13	0	0	0	0	280	
14	0	0	0	0	280	
15	0	0	0	0	280	
0	0	0	0	0	279	
1	0	0	0	0	279	
2	0	0	0	0	279	
3	0	0	0	0	279	
4	0	0	0	0	278	
5	0	0	0	0	278	
6	0	0	0	0	277	
7	0	0	0	0	276	
8	0	0	0	0	276	
9	0	0	0	0	275	
10	0	0	0	0	275	
11	0	0	0	0	276	
12	0	0	0	0	277	
13	0	0	0	0	277	
14	0	0	0	0	276	
15	0	0	0	0	276	
0	0	0	0	0	275	
1	0	0	0	0	275	
2	0	0	0	0	275	
3	0	0	0	0	275	
4	0	0	0	0	275	
5	0	0	0	0	275	
6	0	0	0	0	275	
7	0	0	0	0	275	
8	0	0	0	0	275	
9	0	0	0	0	275	
10	0	0	0	0	275	
11	0	0	0	0	275	
12	0	0	0	0	275	
13	0	0	0	0	276	
14	0	0	0	0	276	
15	0	0	0	0	278	
0	0	0	0	0	278	
1	0	0	0	0	278	
2	0	0	0	0	278	
3	0	0	0	0	279	
4	0	0	0	0	279	
5	0	0	0	0	279	
6	0	0	0	0	279	
7	0	0	0	0	279	
8	0	0	0	0	278	
9	0	0	0	0	278	
10	0	0	0	0	278	
11	0	0	0	0	278	
12	0	0	0	0	278	
13	0	0	0	0	278	
14	0	0	0	0	278	
15	0	0	0	0	278	
0	0	0	0	0	277	
1	0	0	0	0	277	
2	0	0	0	0	277	
3	0	0	0	0	277	
4	0	0	0	0	276	
5	0	0	0	0	276	
6	0	0	0	0	275	
7	0	0	0	0	275	
8	0	0	0	0	275	
9	0	0	0	0	274	
10	0	0	0	0	274	
11	0	0	0	0	274	
12	0	0	0	0	273	
13	0	0	0	0	273	
14	0	0	0	0	273	
15	0	0	0	0	273	
0	0	0	0	0	273	
1	0	0	0	0	273	
2	0	0	0	0	272	
3	0	0	0	0	272	
4	0	0	0	0	272	
5	0	0	0	0	272	
6	0	0	0	0	272	
7	0	0	0	0	272	
8	0	0	0	0	272	
9	0	0	0	0	272	
10	0	0	0	0	272	
11	0	0	0	0	273	
12	0	0	0	0	273	
13	0	0	0	0	273	
14	0	0	0	0	273	
15	0	0	0	0	274	
0	0	0	0	0	274	
1	0	0	0	0	274	
2	0	0	0	0	274	
3	0	0	0	0	274	
4	0	0	0	0	273	
5	0	0	0	0	273	
6	0	0	0	0	273	
7	0	0	0	0	273	
8	0	0	0	0	273	
9	0	0	0	0	273	
10	0	0	0	0	273	
11	0	0	0	0	273	
12	0	0	0	0	272	
13	0	0	0	0	272	
14	0	0	0	0	273	
15	0	0	0	0	273	
0	0	0	0	0	273	
1	0	0	0	0	273	
2	0	0	0	0	273	
3	0	0	0	0	273	
4	0	0	0	0	272	
5	0	0	0	0	273	
6	0	0	0	0	272	
7	0	0	0	0	272	
8	0	0	0	0	273	
9	0	0	0	0	273	
10	0	0	0	0	273	
11	0	0	0	0	273	
12	0	0	0	0	274	
13	0	0	0	0	275	
14	0	0	0	0	276	
15	0	0	0	0	275	
0	0	0	0	0	275	
1	0	0	0	0	277	
2	0	0	0	0	278	
3	0	0	0	0	279	
4	0	0	0	0	279	
5	0	0	0	0	280	
6	0	0	0	0	281	
7	0	0	0	0	281	
8	0	0	0	0	280	
9	0	0	0	0	281	
10	0	0	0	0	282	
11	0	0	0	0	282	
12	0	0	0	0	282	
13	0	0	0	0	282	
14	0	0	0	0	282	
15	0	0	0	0	282	
0	0	0	0	0	282	
1	0	0	0	0	282	
2	0	0	0	0	282	
3	0	0	0	0	282	
4	0	0	0	0	281	
5	0	0	0	0	281	
6	0	0	0	0	281	
7	0	0	0	0	281	
8	0	0	0	0	280	
9	0	0	0	0	281	
10	0	0	0	0	281	
11	0	0	0	0	282	
12	0	0	0	0	282	
13	0	0	0	0	283	
14	0	0	0	0	284	
15	0	0	0	0	284	
0	0	0	0	0	285	
1	0	0	0	0	286	
2	0	0	0	0	286	
3	0	0	0	0	286	
4	0	0	0	0	286	
5	0	0	0	0	286	
6	0	0	0	0	286	
7	0	0	0	0	286	
8	0	0	0	0	287	
9	0	0	0	0	287	
10	0	0	0	0	288	
11	0	0	0	0	288	
12	0	0	0	0	289	
13	0	0	0	0	290	
14	0	0	0	0	290	
15	0	0	0	0	291	
0	0	0	0	0	291	
1	0	0	0	0	291	
2	0	0	0	0	291	
3	0	0	0	0	291	
4	0	0	0	0	291	
5	0	0	0	0	291	
6	0	0	0	0	291	
7	0	0	0	0	290	
8	0	0	0	0	290	
9	0	0	0	0	290	
10	0	0	0	0	289	
11	0	0	0	0	289	
12	0	0	0	0	288	
13	0	0	0	0	288	
14	0	0	0	0	287	
15	0	0	0	0	287	
0	0	0	0	0	287	
1	0	0	0	0	287	
2	0	0	0	0	287	
3	0	0	0	0	286	
4	0	0	0	0	286	
5	0	0	0	0	286	
6	0	0	0	0	285	
7	0	0	0	0	285	
8	0	0	0	0	285	
9	0	0	0	0	285	
10	0	0	0	0	284	
11	0	0	0	0	284	
12	0	0	0	0	284	
13	0	0	0	0	284	
14	0	0	0	0	284	
15	0	0	0	0	284	
0	0	0	0	0	284	
1	0	0	0	0	284	
2	0	0	0	0	283	
3	0	0	0	0	284	
4	0	0	0	0	283	
5	0	0	0	0	283	
6	0	0	0	0	283	
7	0	0	0	0	283	
8	0	0	0	0	283	
9	0	0	0	0	282	
10	0	0	0	0	282	
11	0	0	0	0	282	
12	0	0	0	0	282	
13	0	0	0	0	282	
14	0	0	0	0	281	
15	0	0	0	0	281	
0	0	0	0	0	281	
1	0	0	0	0	282	
2	0	0	0	0	281	
3	0	0	0	0	281	
4	0	0	0	0	281	
5	0	0	0	0	281	
6	0	0	0	0	281	
7	0	0	0	0	281	
8	0	0	0	0	281	
9	0	0	0	0	281	
10	0	0	0	0	280	
11	0	0	0	0	281	
12	0	0	0	0	280	
13	0	0	0	0	280	
14	0	0	0	0	280	
15	0	0	0	0	280	
0	0	0	0	0	280	
1	0	0	0	0	280	
2	0	0	0	0	280	
3	0	0	0	0	280	
4	0	0	0	0	280	
5	0	0	0	0	280	
6	0	0	0	0	280	
7	0	0	0	0	280	
8	0	0	0	0	279	
9	0	0	0	0	279	
10	0	0	0	0	279	
11	0	0	0	0	279	
12	0	0	0	0	279	
13	0	0	0	0	279	
14	0	0	0	0	279	
15	0	0	0	0	279	
0	0	0	0	0	279	
1	0	0	0	0	279	
2	0	0	0	0	279	
3	0	0	0	0	279	
4	0	0	0	0	279	
5	0	0	0	0	279	
6	0	0	0	0	279	
7	0	0	0	0	279	
8	0	0	0	0	279	
9	0	0	0	0	279	
10	0	0	0	0	279	
11	0	0	0	0	280	
12	0	0	0	0	280	
13	0	0	0	0	281	
14	0	0	0	0	282	
15	0	0	0	0	283	
0	0	0	0	0	284	
1	0	0	0	0	285	
2	0	0	0	0	285	
3	0	0	0	0	286	
4	0	0	0	0	286	
5	0	0	0	0	286	
6	0	0	0	0	286	
7	0	0	0	0	287	
8	0	0	0	0	287	
9	0	0	0	0	287	
10	0	0	0	0	286	
11	0	0	0	0	287	
12	0	0	0	0	286	
13	0	0	0	0	286	
14	0	0	0	0	286	
15	0	0	0	0	286	
0	0	0	0	0	285	
1	0	0	0	0	285	
2	0	0	0	0	285	
3	0	0	0	0	284	
4	0	0	0	0	284	
5	0	0	0	0	284	
6	0	0	0	0	283	
7	0	0	0	0	283	
8	0	0	0	0	283	
9	0	0	0	0	284	
10	0	0	0	0	286	
11	0	0	0	0	287	
12	0	0	0	0	289	
13	0	0	0	0	292	
14	0	0	0	0	295	
15	0	0	0	0	298	
0	0	0	0	0	301	
1	0	0	0	0	304	
2	0	0	0	0	306	
3	0	0	0	0	308	
4	0	0	0	0	310	
5	0	0	0	0	312	
6	0	0	0	0	313	
7	0	0	0	0	316	
8	0	0	0	0	317	
9	0	0	0	0	319	
10	0	0	0	0	321	
11	0	0	0	0	323	
12	0	0	0	0	324	
13	0	0	0	0	327	
14	0	0	0	0	328	
15	0	0	0	0	330	
0	0	0	0	0	331	
1	0	0	0	0	332	
2	0	0	0	0	332	
3	0	0	0	0	332	
4	0	0	0	0	332	
5	0	0	0	0	332	
6	0	0	0	0	331	
7	0	0	0	0	331	
8	0	0	0	0	330	
9	0	0	0	0	330	
10	0	0	0	0	330	
11	0	0	0	0	329	
12	0	0	0	0	329	
13	0	0	0	0	328	
14	0	0	0	0	327	
15	0	0	0	0	327	
0	0	0	0	0	327	
1	0	0	0	0	327	
2	0	0	0	0	326	
3	0	0	0	0	327	
4	0	0	0	0	327	
5	0	0	0	0	329	
6	0	0	0	0	330	
7	0	0	0	0	332	
8	0	0	0	0	332	
9	0	0	0	0	334	
10	0	0	0	0	334	
11	0	0	0	0	335	
12	0	0	0	0	335	
13	0	0	0	0	335	
14	0	0	0	0	335	
15	0	0	0	0	336	
0	0	0	0	0	336	
1	0	0	0	0	335	
2	0	0	0	0	335	
3	0	0	0	0	335	
4	0	0	0	0	334	
5	0	0	0	0	334	
6	0	0	0	0	334	
7	0	0	0	0	333	
8	0	0	0	0	332	
9	0	0	0	0	332	
10	0	0	0	0	331	
11	0	0	0	0	331	
12	0	0	0	0	330	
13	0	0	0	0	329	
14	0	0	0	0	329	
15	0	0	0	0	329	
0	0	0	0	0	328	
1	0	0	0	0	328	
2	0	0	0	0	327	
3	0	0	0	0	327	
4	0	0	0	0	327	
5	0	0	0	0	327	
6	0	0	0	0	327	
7	0	0	0	0	327	
8	0	0	0	0	326	
9	0	0	0	0	326	
10	0	0	0	0	326	
11	0	0	0	0	326	
12	0	0	0	0	326	
13	0	0	0	0	325	
14	0	0	0	0	325	
15	0	0	0	0	325	
0	0	0	0	0	325	
1	0	0	0	0	325	
2	0	0	0	0	324	
3	0	0	0	0	324	
4	0	0	0	0	324	
5	0	0	0	0	324	
6	0	0	0	0	324	
7	0	0	0	0	324	
8	0	0	0	0	323	
9	0	0	0	0	323	
10	0	0	0	0	323	
11	0	0	0	0	323	
12	0	0	0	0	323	
13	0	0	0	0	323	
14	0	0	0	0	323	
15	0	0	0	0	323	
0	0	0	0	0	323	
1	0	0	0	0	323	
2	0	0	0	0	323	
3	0	0	0	0	323	
4	0	0	0	0	323	
5	0	0	0	0	323	
6	0	0	0	0	323	
7	0	0	0	0	323	
8	0	0	0	0	322	
9	0	0	0	0	322	
10	0	0	0	0	322	
11	0	0	0	0	322	
12	0	0	0	0	322	
13	0	0	0	0	322	
14	0	0	0	0	323	
15	0	0	0	0	323	
0	0	0	0	0	324	
1	0	0	0	0	326	
2	0	0	0	0	327	
3	0	0	0	0	328	
4	0	0	0	0	329	
5	0	0	0	0	330	
6	0	0	0	0	331	
7	0	0	0	0	332	
8	0	0	0	0	332	
9	0	0	0	0	333	
10	0	0	0	0	332	
11	0	0	0	0	333	
12	0	0	0	0	332	
13	0	0	0	0	332	
14	0	0	0	0	332	
15	0	0	0	0	332	
0	0	0	0	0	332	
1	0	0	0	0	332	
2	0	0	0	0	332	
3	0	0	0	0	333	
4	0	0	0	0	333	
5	0	0	0	0	333	
6	0	0	0	0	333	
7	0	0	0	0	333	
8	0	0	0	0	333	
9	0	0	0	0	333	
10	0	0	0	0	333	
11	0	0	0	0	333	
12	0	0	0	0	332	
13	0	0	0	0	332	
14	0	0	0	0	331	
15	0	0	0	0	331	
0	0	0	0	0	330	
1	0	0	0	0	330	
2	0	0	0	0	329	
3	0	0	0	0	329	
4	0	0	0	0	328	
5	0	0	0	0	328	
6	0	0	0	0	327	
7	0	0	0	0	327	
8	0	0	0	0	327	
9	0	0	0	0	327	
10	0	0	0	0	326	
11	0	0	0	0	326	
12	0	0	0	0	326	
13	0	0	0	0	326	
14	0	0	0	0	325	
15	0	0	0	0	325	
0	0	0	0	0	324	
1	0	0	0	0	324	
2	0	0	0	0	324	
3	0	0	0	0	324	
4	0	0	0	0	323	
5	0	0	0	0	323	
6	0	0	0	0	323	
7	0	0	0	0	323	
8	0	0	0	0	323	
9	0	0	0	0	323	
10	0	0	0	0	322	
11	0	0	0	0	322	
12	0	0	0	0	322	
13	0	0	0	0	322	
14	0	0	0	0	321	
15	0	0	0	0	322	
0	0	0	0	0	321	
1	0	0	0	0	321	
2	0	0	0	0	321	
3	0	0	0	0	321	
4	0	0	0	0	321	
5	0	0	0	0	321	
6	0	0	0	0	321	
7	0	0	0	0	321	
8	0	0	0	0	321	
9	0	0	0	0	321	
10	0	0	0	0	321	
11	0	0	0	0	321	
12	0	0	0	0	321	
13	0	0	0	0	322	
14	0	0	0	0	322	
15	0	0	0	0	323	
0	0	0	0	0	323	
1	0	0	0	0	323	
2	0	0	0	0	323	
3	0	0	0	0	323	
4	0	0	0	0	323	
5	0	0	0	0	323	
6	0	0	0	0	323	
7	0	0	0	0	323	
8	0	0	0	0	322	
9	0	0	0	0	322	
10	0	0	0	0	322	
11	0	0	0	0	322	
12	0	0	0	0	321	
13	0	0	0	0	321	
14	0	0	0	0	321	
15	0	0	0	0	321	
0	0	0	0	0	320	
1	0	0	0	0	320	
2	0	0	0	0	320	
3	0	0	0	0	320	
4	0	0	0	0	319	
5	0	0	0	0	319	
6	0	0	0	0	319	
7	0	0	0	0	319	
8	0	0	0	0	318	
9	0	0	0	0	318	
10	0	0	0	0	318	
11	0	0	0	0	318	
12	0	0	0	0	317	
13	0	0	0	0	317	
14	0	0	0	0	317	
15	0	0	0	0	317	
0	0	0	0	0	316	
1	0	0	0	0	316	
2	0	0	0	0	316	
3	0	0	0	0	316	
4	0	0	0	0	316	
5	0	0	0	0	316	
6	0	0	0	0	315	
7	0	0	0	0	315	
8	0	0	0	0	315	
9	0	0	0	0	315	
10	0	0	0	0	315	
11	0	0	0	0	315	
12	0	0	0	0	315	
13	0	0	0	0	315	
14	0	0	0	0	315	
15	0	0	0	0	315	
0	0	0	0	0	315	
1	0	0	0	0	315	
2	0	0	0	0	315	
3	0	0	0	0	315	
4	0	0	0	0	315	
5	0	0	0	0	315	
6	0	0	0	0	315	
7	0	0	0	0	315	
8	0	0	0	0	314	
9	0	0	0	0	314	
10	0	0	0	0	314	
11	0	0	0	0	314	
12	0	0	0	0	313	
13	0	0	0	0	313	
14	0	0	0	0	313	
15	0	0	0	0	313	
0	0	0	0	0	313	
1	0	0	0	0	313	
2	0	0	0	0	313	
3	0	0	0	0	313	
4	0	0	0	0	313	
5	0	0	0	0	312	
6	0	0	0	0	312	
7	0	0	0	0	313	
8	0	0	0	0	315	
9	0	0	0	0	317	
10	0	0	0	0	319	
11	0	0	0	0	322	
12	0	0	0	0	326	
13	0	0	0	0	329	
14	0	0	0	0	332	
15	0	0	0	0	335	
0	0	0	0	0	337	
1	0	0	0	0	339	
2	0	0	0	0	340	
3	0	0	0	0	340	
4	0	0	0	0	339	
5	0	0	0	0	339	
6	0	0	0	0	339	
7	0	0	0	0	340	
8	0	0	0	0	341	
9	0	0	0	0	341	
10	0	0	0	0	341	
11	0	0	0	0	342	
12	0	0	0	0	341	
13	0	0	0	0	341	
14	0	0	0	0	341	
15	0	0	0	0	341	
0	0	0	0	0	341	
1	0	0	0	0	341	
2	0	0	0	0	340	
3	0	0	0	0	339	
4	0	0	0	0	338	
5	0	0	0	0	337	
6	0	0	0	0	335	
7	0	0	0	0	335	
8	0	0	0	0	334	
9	0	0	0	0	333	
10	0	0	0	0	332	
11	0	0	0	0	332	
12	0	0	0	0	331	
13	0	0	0	0	332	
14	0	0	0	0	332	
15	0	0	0	0	333	
0	0	0	0	0	334	
1	0	0	0	0	335	
2	0	0	0	0	336	
3	0	0	0	0	337	
4	0	0	0	0	338	
5	0	0	0	0	339	
6	0	0	0	0	339	
7	0	0	0	0	340	
8	0	0	0	0	340	
9	0	0	0	0	341	
10	0	0	0	0	342	
11	0	0	0	0	343	
12	0	0	0	0	344	
13	0	0	0	0	345	
14	0	0	0	0	346	
15	0	0	0	0	347	
0	0	0	0	0	347	
1	0	0	0	0	348	
2	0	0	0	0	348	
3	0	0	0	0	348	
4	0	0	0	0	347	
5	0	0	0	0	347	
6	0	0	0	0	346	
7	0	0	0	0	345	
8	0	0	0	0	344	
9	0	0	0	0	344	
10	0	0	0	0	343	
11	0	0	0	0	342	
12	0	0	0	0	341	
13	0	0	0	0	340	
14	0	0	0	0	339	
15	0	0	0	0	339	
0	0	0	0	0	337	
1	0	0	0	0	337	
2	0	0	0	0	336	
3	0	0	0	0	336	
4	0	0	0	0	335	
5	0	0	0	0	335	
6	0	0	0	0	335	
7	0	0	0	0	334	
8	0	0	0	0	334	
9	0	0	0	0	333	
10	0	0	0	0	333	
11	0	0	0	0	332	
12	0	0	0	0	332	
13	0	0	0	0	332	
14	0	0	0	0	332	
15	0	0	0	0	331	
0	0	0	0	0	331	
1	0	0	0	0	331	
2	0	0	0	0	330	
3	0	0	0	0	330	
4	0	0	0	0	329	
5	0	0	0	0	330	
6	0	0	0	0	329	
7	0	0	0	0	330	
8	0	0	0	0	330	
9	0	0	0	0	330	
10	0	0	0	0	331	
11	0	0	0	0	331	
12	0	0	0	0	331	
13	0	0	0	0	331	
14	0	0	0	0	331	
15	0	0	0	0	332	
0	0	0	0	0	332	
1	0	0	0	0	332	
2	0	0	0	0	331	
3	0	0	0	0	332	
4	0	0	0	0	331	
5	0	0	0	0	331	
6	0	0	0	0	331	
7	0	0	0	0	331	
8	0	0	0	0	331	
9	0	0	0	0	330	
10	0	0	0	0	330	
11	0	0	0	0	330	
12	0	0	0	0	329	
13	0	0	0	0	329	
14	0	0	0	0	329	
15	0	0	0	0	329	
0	0	0	0	0	328	
1	0	0	0	0	328	
2	0	0	0	0	328	
3	0	0	0	0	328	
4	0	0	0	0	327	
5	0	0	0	0	327	
6	0	0	0	0	327	
7	0	0	0	0	327	
8	0	0	0	0	326	
9	0	0	0	0	326	
10	0	0	0	0	326	
11	0	0	0	0	326	
12	0	0	0	0	325	
13	0	0	0	0	325	
14	0	0	0	0	325	
15	0	0	0	0	325	
0	0	0	0	0	324	
1	0	0	0	0	324	
2	0	0	0	0	324	
3	0	0	0	0	324	
4	0	0	0	0	323	
5	0	0	0	0	323	
6	0	0	0	0	323	
7	0	0	0	0	323	
8	0	0	0	0	323	
9	0	0	0	0	323	
10	0	0	0	0	323	
11	0	0	0	0	323	
12	0	0	0	0	322	
13	0	0	0	0	322	
14	0	0	0	0	322	
15	0	0	0	0	322	
0	0	0	0	0	322	
1	0	0	0	0	322	
2	0	0	0	0	321	
3	0	0	0	0	321	
4	0	0	0	0	321	
5	0	0	0	0	321	
6	0	0	0	0	321	
7	0	0	0	0	321	
8	0	0	0	0	321	
9	0	0	0	0	321	
10	0	0	0	0	320	
11	0	0	0	0	320	
12	0	0	0	0	320	
13	0	0	0	0	320	
14	0	0	0	0	320	
15	0	0	0	0	320	
0	0	0	0	0	320	
1	0	0	0	0	320	
2	0	0	0	0	320	
3	0	0	0	0	320	
4	0	0	0	0	320	
5	0	0	0	0	320	
6	0	0	0	0	320	
7	0	0	0	0	320	
8	0	0	0	0	320	
9	0	0	0	0	320	
10	0	0	0	0	319	
11	0	0	0	0	319	
12	0	0	0	0	319	
13	0	0	0	0	319	
14	0	0	0	0	319	
15	0	0	0	0	319	
0	0	0	0	0	318	
1	0	0	0	0	318	
2	0	0	0	0	318	
3	0	0	0	0	318	
4	0	0	0	0	318	
5	0	0	0	0	318	
6	0	0	0	0	317	
7	0	0	0	0	317	
8	0	0	0	0	317	
9	0	0	0	0	317	
10	0	0	0	0	317	
11	0	0	0	0	317	
12	0	0	0	0	317	
13	0	0	0	0	318	
14	0	0	0	0	319	
15	0	0	0	0	320	
0	0	0	0	0	322	
1	0	0	0	0	324	
2	0	0	0	0	326	
3	0	0	0	0	327	
4	0	0	0	0	328	
5	0	0	0	0	330	
6	0	0	0	0	331	
7	0	0	0	0	332	
8	0	0	0	0	332	
9	0	0	0	0	332	
10	0	0	0	0	332	
11	0	0	0	0	332	
12	0	0	0	0	332	
13	0	0	0	0	332	
14	0	0	0	0	331	
15	0	0	0	0	331	
0	0	0	0	0	329	
1	0	0	0	0	329	
2	0	0	0	0	328	
3	0	0	0	0	327	
4	0	0	0	0	327	
5	0	0	0	0	326	
6	0	0	0	0	325	
7	0	0	0	0	325	
8	0	0	0	0	324	
9	0	0	0	0	323	
10	0	0	0	0	323	
11	0	0	0	0	323	
12	0	0	0	0	322	
13	0	0	0	0	321	
14	0	0	0	0	321	
15	0	0	0	0	321	
0	0	0	0	0	320	
1	0	0	0	0	320	
2	0	0	0	0	319	
3	0	0	0	0	319	
4	0	0	0	0	319	
5	0	0	0	0	319	
6	0	0	0	0	319	
7	0	0	0	0	318	
8	0	0	0	0	318	
9	0	0	0	0	318	
10	0	0	0	0	318	
11	0	0	0	0	318	
12	0	0	0	0	317	
13	0	0	0	0	317	
14	0	0	0	0	317	
15	0	0	0	0	317	
0	0	0	0	0	316	
1	0	0	0	0	316	
2	0	0	0	0	316	
3	0	0	0	0	316	
4	0	0	0	0	316	
5	0	0	0	0	316	
6	0	0	0	0	315	
7	0	0	0	0	315	
8	0	0	0	0	315	
9	0	0	0	0	315	
10	0	0	0	0	315	
11	0	0	0	0	315	
12	0	0	0	0	315	
13	0	0	0	0	316	
14	0	0	0	0	316	
15	0	0	0	0	317	
0	0	0	0	0	319	
1	0	0	0	0	319	
2	0	0	0	0	320	
3	0	0	0	0	322	
4	0	0	0	0	322	
5	0	0	0	0	323	
6	0	0	0	0	323	
7	0	0	0	0	323	
8	0	0	0	0	323	
9	0	0	0	0	324	
10	0	0	0	0	323	
11	0	0	0	0	323	
12	0	0	0	0	323	
13	0	0	0	0	322	
14	0	0	0	0	321	
15	0	0	0	0	321	
0	0	0	0	0	321	
1	0	0	0	0	321	
2	0	0	0	0	321	
3	0	0	0	0	323	
4	0	0	0	0	323	
5	0	0	0	0	325	
6	0	0	0	0	326	
7	0	0	0	0	326	
8	0	0	0	0	327	
9	0	0	0	0	327	
10	0	0	0	0	327	
11	0	0	0	0	328	
12	0	0	0	0	328	
13	0	0	0	0	328	
14	0	0	0	0	328	
15	0	0	0	0	328	
0	0	0	0	0	328	
1	0	0	0	0	327	
2	0	0	0	0	327	
3	0	0	0	0	327	
4	0	0	0	0	326	
5	0	0	0	0	325	
6	0	0	0	0	324	
7	0	0	0	0	324	
8	0	0	0	0	323	
9	0	0	0	0	322	
10	0	0	0	0	321	
11	0	0	0	0	321	
12	0	0	0	0	321	
13	0	0	0	0	322	
14	0	0	0	0	323	
15	0	0	0	0	323	
0	0	0	0	0	323	
1	0	0	0	0	323	
2	0	0	0	0	322	
3	0	0	0	0	321	
4	0	0	0	0	321	
5	0	0	0	0	321	
6	0	0	0	0	320	
7	0	0	0	0	320	
8	0	0	0	0	320	
9	0	0	0	0	319	
10	0	0	0	0	319	
11	0	0	0	0	319	
12	0	0	0	0	319	
13	0	0	0	0	319	
14	0	0	0	0	319	
15	0	0	0	0	319	
0	0	0	0	0	319	
1	0	0	0	0	319	
2	0	0	0	0	319	
3	0	0	0	0	319	
4	0	0	0	0	319	
5	0	0	0	0	319	
6	0	0	0	0	318	
7	0	0	0	0	318	
8	0	0	0	0	318	
9	0	0	0	0	318	
10	0	0	0	0	318	
11	0	0	0	0	318	
12	0	0	0	0	318	
13	0	0	0	0	318	
14	0	0	0	0	317	
15	0	0	0	0	317	
0	0	0	0	0	317	
1	0	0	0	0	317	
2	0	0	0	0	317	
3	0	0	0	0	317	
4	0	0	0	0	316	
5	0	0	0	0	316	
6	0	0	0	0	316	
7	0	0	0	0	316	
8	0	0	0	0	316	
9	0	0	0	0	316	
10	0	0	0	0	316	
11	0	0	0	0	316	
12	0	0	0	0	315	
13	0	0	0	0	315	
14	0	0	0	0	315	
15	0	0	0	0	315	
0	0	0	0	0	315	
1	0	0	0	0	315	
2	0	0	0	0	315	
3	0	0	0	0	315	
4	0	0	0	0	315	
5	0	0	0	0	315	
6	0	0	0	0	314	
7	0	0	0	0	314	
8	0	0	0	0	314	
9	0	0	0	0	314	
10	0	0	0	0	313	
11	0	0	0	0	313	
12	0	0	0	0	313	
13	0	0	0	0	313	
14	0	0	0	0	313	
15	0	0	0	0	312	
0	0	0	0	0	311	
1	0	0	0	0	310	
2	0	0	0	0	310	
3	0	0	0	0	309	
4	0	0	0	0	307	
5	0	0	0	0	307	
6	0	0	0	0	306	
7	0	0	0	0	306	
8	0	0	0	0	305	
9	0	0	0	0	305	
10	0	0	0	0	305	
11	0	0	0	0	305	
12	0	0	0	0	305	
13	0	0	0	0	305	
14	0	0	0	0	304	
15	0	0	0	0	304	
0	0	0	0	0	304	
1	0	0	0	0	303	
2	0	0	0	0	303	
3	0	0	0	0	304	
4	0	0	0	0	305	
5	0	0	0	0	306	
6	0	0	0	0	305	
7	0	0	0	0	305	
8	0	0	0	0	305	
9	0	0	0	0	305	
10	0	0	0	0	304	
11	0	0	0	0	304	
12	0	0	0	0	304	
13	0	0	0	0	304	
14	0	0	0	0	304	
15	0	0	0	0	304	
0	0	0	0	0	304	
1	0	0	0	0	304	
2	0	0	0	0	304	
3	0	0	0	0	304	
4	0	0	0	0	304	
5	0	0	0	0	304	
6	0	0	0	0	303	
7	0	0	0	0	303	
8	0	0	0	0	303	
9	0	0	0	0	303	
10	0	0	0	0	303	
11	0	0	0	0	303	
12	0	0	0	0	303	
13	0	0	0	0	303	
14	0	0	0	0	303	
15	0	0	0	0	303	
0	0	0	0	0	302	
1	0	0	0	0	302	
2	0	0	0	0	301	
3	0	0	0	0	300	
4	0	0	0	0	299	
5	0	0	0	0	299	
6	0	0	0	0	300	
7	0	0	0	0	300	
8	0	0	0	0	300	
9	0	0	0	0	300	
10	0	0	0	0	300	
11	0	0	0	0	300	
12	0	0	0	0	300	
13	0	0	0	0	300	
14	0	0	0	0	300	
15	0	0	0	0	300	
0	0	0	0	0	300	
1	0	0	0	0	300	
2	0	0	0	0	300	
3	0	0	0	0	300	
4	0	0	0	0	300	
5	0	0	0	0	300	
6	0	0	0	0	299	
7	0	0	0	0	300	
8	0	0	0	0	300	
9	0	0	0	0	300	
10	0	0	0	0	300	
11	0	0	0	0	300	
12	0	0	0	0	300	
13	0	0	0	0	301	
14	0	0	0	0	301	
15	0	0	0	0	302	
0	0	0	0	0	302	
1	0	0	0	0	302	
2	0	0	0	0	303	
3	0	0	0	0	303	
4	0	0	0	0	303	
5	0	0	0	0	303	
6	0	0	0	0	303	
7	0	0	0	0	303	
8	0	0	0	0	302	
9	0	0	0	0	303	
10	0	0	0	0	302	
11	0	0	0	0	302	
12	0	0	0	0	302	
13	0	0	0	0	301	
14	0	0	0	0	301	
15	0	0	0	0	300	
0	0	0	0	0	300	
1	0	0	0	0	300	
2	0	0	0	0	300	
3	0	0	0	0	299	
4	0	0	0	0	299	
5	0	0	0	0	299	
6	0	0	0	0	298	
7	0	0	0	0	298	
8	0	0	0	0	298	
9	0	0	0	0	298	
10	0	0	0	0	297	
11	0	0	0	0	297	
12	0	0	0	0	297	
13	0	0	0	0	297	
14	0	0	0	0	297	
15	0	0	0	0	297	
0	0	0	0	0	296	
1	0	0	0	0	296	
2	0	0	0	0	296	
3	0	0	0	0	296	
4	0	0	0	0	296	
5	0	0	0	0	296	
6	0	0	0	0	295	
7	0	0	0	0	295	
8	0	0	0	0	295	
9	0	0	0	0	295	
10	0	0	0	0	295	
11	0	0	0	0	295	
12	0	0	0	0	294	
13	0	0	0	0	294	
14	0	0	0	0	294	
15	0	0	0	0	294	
0	0	0	0	0	294	
1	0	0	0	0	294	
2	0	0	0	0	293	
3	0	0	0	0	293	
4	0	0	0	0	293	
5	0	0	0	0	293	
6	0	0	0	0	293	
7	0	0	0	0	293	
8	0	0	0	0	292	
9	0	0	0	0	292	
10	0	0	0	0	292	
11	0	0	0	0	292	
12	0	0	0	0	292	
13	0	0	0	0	292	
14	0	0	0	0	291	
15	0	0	0	0	292	
0	0	0	0	0	291	
1	0	0	0	0	291	
2	0	0	0	0	291	
3	0	0	0	0	291	
4	0	0	0	0	291	
5	0	0	0	0	291	
6	0	0	0	0	291	
7	0	0	0	0	291	
8	0	0	0	0	290	
9	0	0	0	0	290	
10	0	0	0	0	290	
11	0	0	0	0	290	
12	0	0	0	0	290	
13	0	0	0	0	290	
14	0	0	0	0	290	
15	0	0	0	0	290	
0	0	0	0	0	289	
1	0	0	0	0	289	
2	0	0	0	0	289	
3	0	0	0	0	289	
4	0	0	0	0	289	
5	0	0	0	0	289	
6	0	0	0	0	289	
7	0	0	0	0	289	
8	0	0	0	0	288	
9	0	0	0	0	288	
10	0	0	0	0	288	
11	0	0	0	0	288	
12	0	0	0	0	288	
13	0	0	0	0	288	
14	0	0	0	0	288	
15	0	0	0	0	288	
0	0	0	0	0	288	
1	0	0	0	0	287	
2	0	0	0	0	287	
3	0	0	0	0	287	
4	0	0	0	0	287	
5	0	0	0	0	287	
6	0	0	0	0	287	
7	0	0	0	0	287	
8	0	0	0	0	287	
9	0	0	0	0	287	
10	0	0	0	0	287	
11	0	0	0	0	287	
12	0	0	0	0	287	
13	0	0	0	0	287	
14	0	0	0	0	286	
15	0	0	0	0	287	
0	0	0	0	0	286	
1	0	0	0	0	287	
2	0	0	0	0	287	
3	0	0	0	0	287	
4	0	0	0	0	288	
5	0	0	0	0	288	
6	0	0	0	0	288	
7	0	0	0	0	289	
8	0	0	0	0	289	
9	0	0	0	0	289	
10	0	0	0	0	289	
11	0	0	0	0	289	
12	0	0	0	0	289	
13	0	0	0	0	289	
14	0	0	0	0	289	
15	0	0	0	0	289	
0	0	0	0	0	288	
1	0	0	0	0	288	
2	0	0	0	0	288	
3	0	0	0	0	288	
4	0	0	0	0	287	
5	0	0	0	0	287	
6	0	0	0	0	287	
7	0	0	0	0	287	
8	0	0	0	0	287	
9	0	0	0	0	287	
10	0	0	0	0	287	
11	0	0	0	0	287	
12	0	0	0	0	286	
13	0	0	0	0	286	
14	0	0	0	0	286	
15	0	0	0	0	286	
0	0	0	0	0	286	
1	0	0	0	0	286	
2	0	0	0	0	285	
3	0	0	0	0	285	
4	0	0	0	0	285	
5	0	0	0	0	285	
6	0	0	0	0	285	
7	0	0	0	0	285	
8	0	0	0	0	284	
9	0	0	0	0	284	
10	0	0	0	0	284	
11	0	0	0	0	284	
12	0	0	0	0	284	
13	0	0	0	0	284	
14	0	0	0	0	284	
15	0	0	0	0	284	
0	0	0	0	0	284	
1	0	0	0	0	284	
2	0	0	0	0	283	
3	0	0	0	0	283	
4	0	0	0	0	283	
5	0	0	0	0	283	
6	0	0	0	0	283	
7	0	0	0	0	284	
8	0	0	0	0	284	
9	0	0	0	0	284	
10	0	0	0	0	284	
11	0	0	0	0	285	
12	0	0	0	0	284	
13	0	0	0	0	285	
14	0	0	0	0	285	
15	0	0	0	0	286	
0	0	0	0	0	285	
1	0	0	0	0	286	
2	0	0	0	0	286	
3	0	0	0	0	286	
4	0	0	0	0	286	
5	0	0	0	0	287	
6	0	0	0	0	287	
7	0	0	0	0	287	
8	0	0	0	0	288	
9	0	0	0	0	287	
10	0	0	0	0	287	
11	0	0	0	0	288	
12	0	0	0	0	288	
13	0	0	0	0	288	
14	0	0	0	0	288	
15	0	0	0	0	289	
0	0	0	0	0	289	
1	0	0	0	0	291	
2	0	0	0	0	291	
3	0	0	0	0	292	
4	0	0	0	0	293	
5	0	0	0	0	294	
6	0	0	0	0	294	
7	0	0	0	0	295	
8	0	0	0	0	295	
9	0	0	0	0	295	
10	0	0	0	0	295	
11	0	0	0	0	295	
12	0	0	0	0	295	
13	0	0	0	0	295	
14	0	0	0	0	295	
15	0	0	0	0	295	
0	0	0	0	0	295	
1	0	0	0	0	295	
2	0	0	0	0	295	
3	0	0	0	0	295	
4	0	0	0	0	295	
5	0	0	0	0	295	
6	0	0	0	0	295	
7	0	0	0	0	295	
8	0	0	0	0	295	
9	0	0	0	0	295	
10	0	0	0	0	295	
11	0	0	0	0	294	
12	0	0	0	0	293	
13	0	0	0	0	293	
14	0	0	0	0	292	
15	0	0	0	0	292	
0	0	0	0	0	291	
1	0	0	0	0	291	
2	0	0	0	0	291	
3	0	0	0	0	291	
4	0	0	0	0	290	
5	0	0	0	0	290	
6	0	0	0	0	290	
7	0	0	0	0	289	
8	0	0	0	0	289	
9	0	0	0	0	288	
10	0	0	0	0	287	
11	0	0	0	0	287	
12	0	0	0	0	287	
13	0	0	0	0	287	
14	0	0	0	0	287	
15	0	0	0	0	287	
0	0	0	0	0	287	
1	0	0	0	0	287	
2	0	0	0	0	286	
3	0	0	0	0	286	
4	0	0	0	0	286	
5	0	0	0	0	286	
6	0	0	0	0	285	
7	0	0	0	0	285	
8	0	0	0	0	285	
9	0	0	0	0	285	
10	0	0	0	0	285	
11	0	0	0	0	285	
12	0	0	0	0	284	
13	0	0	0	0	284	
14	0	0	0	0	284	
15	0	0	0	0	284	
0	0	0	0	0	284	
1	0	0	0	0	284	
2	0	0	0	0	283	
3	0	0	0	0	283	
4	0	0	0	0	283	
5	0	0	0	0	283	
6	0	0	0	0	283	
7	0	0	0	0	284	
8	0	0	0	0	284	
9	0	0	0	0	282	
10	0	0	0	0	280	
11	0	0	0	0	280	
12	0	0	0	0	280	
13	0	0	0	0	280	
14	0	0	0	0	283	
15	0	0	0	0	285	
0	0	0	0	0	285	
1	0	0	0	0	284	
2	0	0	0	0	283	
3	0	0	0	0	283	
4	0	0	0	0	283	
5	0	0	0	0	283	
6	0	0	0	0	283	
7	0	0	0	0	283	
8	0	0	0	0	283	
9	0	0	0	0	283	
10	0	0	0	0	283	
11	0	0	0	0	284	
12	0	0	0	0	286	
13	0	0	0	0	287	
14	0	0	0	0	287	
15	0	0	0	0	287	
0	0	0	0	0	287	
1	0	0	0	0	287	
2	0	0	0	0	287	
3	0	0	0	0	287	
4	0	0	0	0	286	
5	0	0	0	0	286	
6	0	0	0	0	286	
7	0	0	0	0	285	
8	0	0	0	0	285	
9	0	0	0	0	285	
10	0	0	0	0	284	
11	0	0	0	0	284	
12	0	0	0	0	284	
13	0	0	0	0	284	
14	0	0	0	0	283	
15	0	0	0	0	283	
0	0	0	0	0	283	
1	0	0	0	0	283	
2	0	0	0	0	283	
3	0	0	0	0	282	
4	0	0	0	0	282	
5	0	0	0	0	282	
6	0	0	0	0	282	
7	0	0	0	0	282	
8	0	0	0	0	281	
9	0	0	0	0	281	
10	0	0	0	0	281	
11	0	0	0	0	281	
12	0	0	0	0	281	
13	0	0	0	0	281	
14	0	0	0	0	281	
15	0	0	0	0	281	
0	0	0	0	0	280	
1	0	0	0	0	280	
2	0	0	0	0	280	
3	0	0	0	0	280	
4	0	0	0	0	280	
5	0	0	0	0	280	
6	0	0	0	0	280	
7	0	0	0	0	280	
8	0	0	0	0	279	
9	0	0	0	0	279	
10	0	0	0	0	279	
11	0	0	0	0	279	
12	0	0	0	0	279	
13	0	0	0	0	279	
14	0	0	0	0	279	
15	0	0	0	0	279	
0	0	0	0	0	279	
1	0	0	0	0	279	
2	0	0	0	0	279	
3	0	0	0	0	280	
4	0	0	0	0	279	
5	0	0	0	0	279	
6	0	0	0	0	279	
7	0	0	0	0	279	
8	0	0	0	0	279	
9	0	0	0	0	279	
10	0	0	0	0	279	
11	0	0	0	0	279	
12	0	0	0	0	279	
13	0	0	0	0	279	
14	0	0	0	0	278	
15	0	0	0	0	278	
0	0	0	0	0	278	
1	0	0	0	0	278	
2	0	0	0	0	278	
3	0	0	0	0	278	
4	0	0	0	0	278	
5	0	0	0	0	278	
6	0	0	0	0	277	
7	0	0	0	0	277	
8	0	0	0	0	277	
9	0	0	0	0	278	
10	0	0	0	0	279	
11	0	0	0	0	280	
12	0	0	0	0	280	
13	0	0	0	0	280	
14	0	0	0	0	279	
15	0	0	0	0	280	
0	0	0	0	0	280	
1	0	0	0	0	280	
2	0	0	0	0	280	
3	0	0	0	0	281	
4	0	0	0	0	282	
5	0	0	0	0	284	
6	0	0	0	0	285	
7	0	0	0	0	286	
8	0	0	0	0	287	
9	0	0	0	0	289	
10	0	0	0	0	290	
11	0	0	0	0	291	
12	0	0	0	0	291	
13	0	0	0	0	291	
14	0	0	0	0	291	
15	0	0	0	0	291	
0	0	0	0	0	291	
1	0	0	0	0	291	
2	0	0	0	0	289	
3	0	0	0	0	287	
4	0	0	0	0	286	
5	0	0	0	0	288	
6	0	0	0	0	289	
7	0	0	0	0	290	
8	0	0	0	0	290	
9	0	0	0	0	290	
10	0	0	0	0	290	
11	0	0	0	0	290	
12	0	0	0	0	289	
13	0	0	0	0	289	
14	0	0	0	0	289	
15	0	0	0	0	289	
0	0	0	0	0	289	
1	0	0	0	0	289	
2	0	0	0	0	288	
3	0	0	0	0	288	
4	0	0	0	0	287	
5	0	0	0	0	287	
6	0	0	0	0	287	
7	0	0	0	0	287	
8	0	0	0	0	286	
9	0	0	0	0	286	
10	0	0	0	0	286	
11	0	0	0	0	286	
12	0	0	0	0	286	
13	0	0	0	0	286	
14	0	0	0	0	285	
15	0	0	0	0	285	
0	0	0	0	0	285	
1	0	0	0	0	285	
2	0	0	0	0	286	
3	0	0	0	0	286	
4	0	0	0	0	287	
5	0	0	0	0	287	
6	0	0	0	0	288	
7	0	0	0	0	289	
8	0	0	0	0	290	
9	0	0	0	0	291	
10	0	0	0	0	292	
11	0	0	0	0	293	
12	0	0	0	0	294	
13	0	0	0	0	295	
14	0	0	0	0	295	
15	0	0	0	0	296	
0	0	0	0	0	297	
1	0	0	0	0	297	
2	0	0	0	0	297	
3	0	0	0	0	298	
4	0	0	0	0	297	
5	0	0	0	0	297	
6	0	0	0	0	297	
7	0	0	0	0	296	
8	0	0	0	0	296	
9	0	0	0	0	295	
10	0	0	0	0	295	
11	0	0	0	0	295	
12	0	0	0	0	294	
13	0	0	0	0	294	
14	0	0	0	0	294	
15	0	0	0	0	293	
0	0	0	0	0	293	
1	0	0	0	0	293	
2	0	0	0	0	292	
3	0	0	0	0	292	
4	0	0	0	0	292	
5	0	0	0	0	292	
6	0	0	0	0	291	
7	0	0	0	0	291	
8	0	0	0	0	291	
9	0	0	0	0	291	
10	0	0	0	0	290	
11	0	0	0	0	291	
12	0	0	0	0	290	
13	0	0	0	0	290	
14	0	0	0	0	290	
15	0	0	0	0	291	
0	0	0	0	0	291	
1	0	0	0	0	291	
2	0	0	0	0	292	
3	0	0	0	0	292	
4	0	0	0	0	292	
5	0	0	0	0	293	
6	0	0	0	0	293	
7	0	0	0	0	294	
8	0	0	0	0	294	
9	0	0	0	0	294	
10	0	0	0	0	294	
11	0	0	0	0	293	
12	0	0	0	0	293	
13	0	0	0	0	293	
14	0	0	0	0	292	
15	0	0	0	0	292	
0	0	0	0	0	292	
1	0	0	0	0	292	
2	0	0	0	0	291	
3	0	0	0	0	291	
4	0	0	0	0	291	
5	0	0	0	0	291	
6	0	0	0	0	290	
7	0	0	0	0	290	
8	0	0	0	0	289	
9	0	0	0	0	290	
10	0	0	0	0	289	
11	0	0	0	0	289	
12	0	0	0	0	289	
13	0	0	0	0	289	
14	0	0	0	0	289	
15	0	0	0	0	289	
0	0	0	0	0	289	
1	0	0	0	0	289	
2	0	0	0	0	289	
3	0	0	0	0	289	
4	0	0	0	0	290	
5	0	0	0	0	290	
6	0	0	0	0	290	
7	0	0	0	0	290	
8	0	0	0	0	290	
9	0	0	0	0	290	
10	0	0	0	0	291	
11	0	0	0	0	291	
12	0	0	0	0	289	
13	0	0	0	0	289	
14	0	0	0	0	289	
15	0	0	0	0	289	
0	0	0	0	0	288	
1	0	0	0	0	288	
2	0	0	0	0	288	
3	0	0	0	0	288	
4	0	0	0	0	288	
5	0	0	0	0	288	
6	0	0	0	0	289	
7	0	0	0	0	290	
8	0	0	0	0	289	
9	0	0	0	0	290	
10	0	0	0	0	290	
11	0	0	0	0	290	
12	0	0	0	0	290	
13	0	0	0	0	291	
14	0	0	0	0	291	
15	0	0	0	0	292	
0	0	0	0	0	292	
1	0	0	0	0	292	
2	0	0	0	0	292	
3	0	0	0	0	293	
4	0	0	0	0	293	
5	0	0	0	0	294	
6	0	0	0	0	294	
7	0	0	0	0	293	
8	0	0	0	0	293	
9	0	0	0	0	292	
10	0	0	0	0	292	
11	0	0	0	0	292	
12	0	0	0	0	291	
13	0	0	0	0	291	
14	0	0	0	0	291	
15	0	0	0	0	291	
0	0	0	0	0	292	
1	0	0	0	0	292	
2	0	0	0	0	293	
3	0	0	0	0	294	
4	0	0	0	0	294	
5	0	0	0	0	294	
6	0	0	0	0	294	
7	0	0	0	0	294	
8	0	0	0	0	294	
9	0	0	0	0	294	
10	0	0	0	0	293	
11	0	0	0	0	293	
12	0	0	0	0	292	
13	0	0	0	0	291	
14	0	0	0	0	291	
15	0	0	0	0	292	
0	0	0	0	0	290	
1	0	0	0	0	289	
2	0	0	0	0	288	
3	0	0	0	0	288	
4	0	0	0	0	287	
5	0	0	0	0	287	
6	0	0	0	0	287	
7	0	0	0	0	289	
8	0	0	0	0	291	
9	0	0	0	0	291	
10	0	0	0	0	289	
11	0	0	0	0	287	
12	0	0	0	0	282	
13	0	0	0	0	277	
14	0	0	0	0	276	
15	0	0	0	0	287	
0	0	0	0	0	293	
1	0	0	0	0	295	
2	0	0	0	0	296	
3	0	0	0	0	298	
4	0	0	0	0	300	
5	0	0	0	0	302	
6	0	0	0	0	304	
7	0	0	0	0	306	
8	0	0	0	0	308	
9	0	0	0	0	311	
10	0	0	0	0	312	
11	0	0	0	0	314	
12	0	0	0	0	315	
13	0	0	0	0	316	
14	0	0	0	0	316	
15	0	0	0	0	316	
0	0	0	0	0	316	
1	0	0	0	0	316	
2	0	0	0	0	316	
3	0	0	0	0	317	
4	0	0	0	0	317	
5	0	0	0	0	317	
6	0	0	0	0	318	
7	0	0	0	0	318	
8	0	0	0	0	318	
9	0	0	0	0	318	
10	0	0	0	0	317	
11	0	0	0	0	317	
12	0	0	0	0	317	
13	0	0	0	0	316	
14	0	0	0	0	316	
15	0	0	0	0	316	
0	0	0	0	0	316	
1	0	0	0	0	317	
2	0	0	0	0	318	
3	0	0	0	0	318	
4	0	0	0	0	319	
5	0	0	0	0	319	
6	0	0	0	0	320	
7	0	0	0	0	321	
8	0	0	0	0	321	
9	0	0	0	0	321	
10	0	0	0	0	320	
11	0	0	0	0	320	
12	0	0	0	0	321	
13	0	0	0	0	321	
14	0	0	0	0	321	
15	0	0	0	0	320	
0	0	0	0	0	320	
1	0	0	0	0	320	
2	0	0	0	0	320	
3	0	0	0	0	321	
4	0	0	0	0	320	
5	0	0	0	0	318	
6	0	0	0	0	315	
7	0	0	0	0	314	
8	0	0	0	0	314	
9	0	0	0	0	315	
10	0	0	0	0	316	
11	0	0	0	0	317	
12	0	0	0	0	319	
13	0	0	0	0	321	
14	0	0	0	0	323	
15	0	0	0	0	325	
0	0	0	0	0	327	
1	0	0	0	0	328	
2	0	0	0	0	329	
3	0	0	0	0	330	
4	0	0	0	0	330	
5	0	0	0	0	331	
6	0	0	0	0	330	
7	0	0	0	0	331	
8	0	0	0	0	330	
9	0	0	0	0	329	
10	0	0	0	0	329	
11	0	0	0	0	328	
12	0	0	0	0	327	
13	0	0	0	0	327	
14	0	0	0	0	325	
15	0	0	0	0	324	
0	0	0	0	0	323	
1	0	0	0	0	322	
2	0	0	0	0	322	
3	0	0	0	0	321	
4	0	0	0	0	320	
5	0	0	0	0	320	
6	0	0	0	0	320	
7	0	0	0	0	319	
8	0	0	0	0	319	
9	0	0	0	0	319	
10	0	0	0	0	319	
11	0	0	0	0	319	
12	0	0	0	0	319	
13	0	0	0	0	319	
14	0	0	0	0	318	
15	0	0	0	0	318	
0	0	0	0	0	318	
1	0	0	0	0	319	
2	0	0	0	0	319	
3	0	0	0	0	320	
4	0	0	0	0	321	
5	0	0	0	0	322	
6	0	0	0	0	323	
7	0	0	0	0	324	
8	0	0	0	0	324	
9	0	0	0	0	325	
10	0	0	0	0	325	
11	0	0	0	0	326	
12	0	0	0	0	326	
13	0	0	0	0	326	
14	0	0	0	0	325	
15	0	0	0	0	325	
0	0	0	0	0	324	
1	0	0	0	0	323	
2	0	0	0	0	323	
3	0	0	0	0	322	
4	0	0	0	0	321	
5	0	0	0	0	321	
6	0	0	0	0	321	
7	0	0	0	0	321	
8	0	0	0	0	321	
9	0	0	0	0	322	
10	0	0	0	0	322	
11	0	0	0	0	323	
12	0	0	0	0	323	
13	0	0	0	0	324	
14	0	0	0	0	324	
15	0	0	0	0	324	
0	0	0	0	0	323	
1	0	0	0	0	323	
2	0	0	0	0	323	
3	0	0	0	0	323	
4	0	0	0	0	323	
5	0	0	0	0	322	
6	0	0	0	0	321	
7	0	0	0	0	321	
8	0	0	0	0	320	
9	0	0	0	0	319	
10	0	0	0	0	319	
11	0	0	0	0	318	
12	0	0	0	0	318	
13	0	0	0	0	318	
14	0	0	0	0	317	
15	0	0	0	0	317	
0	0	0	0	0	316	
1	0	0	0	0	316	
2	0	0	0	0	316	
3	0	0	0	0	316	
4	0	0	0	0	315	
5	0	0	0	0	315	
6	0	0	0	0	314	
7	0	0	0	0	314	
8	0	0	0	0	314	
9	0	0	0	0	313	
10	0	0	0	0	313	
11	0	0	0	0	313	
12	0	0	0	0	313	
13	0	0	0	0	313	
14	0	0	0	0	312	
15	0	0	0	0	312	
0	0	0	0	0	312	
1	0	0	0	0	312	
2	0	0	0	0	312	
3	0	0	0	0	312	
4	0	0	0	0	311	
5	0	0	0	0	311	
6	0	0	0	0	311	
7	0	0	0	0	311	
8	0	0	0	0	311	
9	0	0	0	0	311	
10	0	0	0	0	311	
11	0	0	0	0	310	
12	0	0	0	0	310	
13	0	0	0	0	310	
14	0	0	0	0	310	
15	0	0	0	0	310	
0	0	0	0	0	309	
1	0	0	0	0	309	
2	0	0	0	0	309	
3	0	0	0	0	309	
4	0	0	0	0	309	
5	0	0	0	0	309	
6	0	0	0	0	308	
7	0	0	0	0	308	
8	0	0	0	0	308	
9	0	0	0	0	308	
10	0	0	0	0	308	
11	0	0	0	0	308	
12	0	0	0	0	307	
13	0	0	0	0	308	
14	0	0	0	0	307	
15	0	0	0	0	307	
0	0	0	0	0	307	
1	0	0	0	0	307	
2	0	0	0	0	307	
3	0	0	0	0	307	
4	0	0	0	0	307	
5	0	0	0	0	307	
6	0	0	0	0	307	
7	0	0	0	0	307	
8	0	0	0	0	307	
9	0	0	0	0	307	
10	0	0	0	0	307	
11	0	0	0	0	307	
12	0	0	0	0	306	
13	0	0	0	0	306	
14	0	0	0	0	306	
15	0	0	0	0	307	
0	0	0	0	0	307	
1	0	0	0	0	308	
2	0	0	0	0	309	
3	0	0	0	0	311	
4	0	0	0	0	312	
5	0	0	0	0	314	
6	0	0	0	0	315	
7	0	0	0	0	316	
8	0	0	0	0	318	
9	0	0	0	0	319	
10	0	0	0	0	319	
11	0	0	0	0	320	
12	0	0	0	0	320	
13	0	0	0	0	320	
14	0	0	0	0	320	
15	0	0	0	0	321	
0	0	0	0	0	321	
1	0	0	0	0	322	
2	0	0	0	0	323	
3	0	0	0	0	325	
4	0	0	0	0	327	
5	0	0	0	0	328	
6	0	0	0	0	329	
7	0	0	0	0	331	
8	0	0	0	0	331	
9	0	0	0	0	332	
10	0	0	0	0	332	
11	0	0	0	0	332	
12	0	0	0	0	332	
13	0	0	0	0	332	
14	0	0	0	0	331	
15	0	0	0	0	331	
0	0	0	0	0	329	
1	0	0	0	0	328	
2	0	0	0	0	327	
3	0	0	0	0	327	
4	0	0	0	0	326	
5	0	0	0	0	325	
6	0	0	0	0	324	
7	0	0	0	0	324	
8	0	0	0	0	323	
9	0	0	0	0	323	
10	0	0	0	0	322	
11	0	0	0	0	322	
12	0	0	0	0	321	
13	0	0	0	0	321	
14	0	0	0	0	321	
15	0	0	0	0	320	
0	0	0	0	0	320	
1	0	0	0	0	320	
2	0	0	0	0	319	
3	0	0	0	0	319	
4	0	0	0	0	319	
5	0	0	0	0	319	
6	0	0	0	0	318	
7	0	0	0	0	318	
8	0	0	0	0	317	
9	0	0	0	0	317	
10	0	0	0	0	316	
11	0	0	0	0	316	
12	0	0	0	0	315	
13	0	0	0	0	315	
14	0	0	0	0	315	
15	0	0	0	0	315	
0	0	0	0	0	315	
1	0	0	0	0	315	
2	0	0	0	0	315	
3	0	0	0	0	315	
4	0	0	0	0	315	
5	0	0	0	0	316	
6	0	0	0	0	316	
7	0	0	0	0	317	
8	0	0	0	0	317	
9	0	0	0	0	317	
10	0	0	0	0	317	
11	0	0	0	0	317	
12	0	0	0	0	316	
13	0	0	0	0	316	
14	0	0	0	0	316	
15	0	0	0	0	316	
0	0	0	0	0	316	
1	0	0	0	0	316	
2	0	0	0	0	316	
3	0	0	0	0	316	
4	0	0	0	0	316	
5	0	0	0	0	316	
6	0	0	0	0	315	
7	0	0	0	0	316	
8	0	0	0	0	317	
9	0	0	0	0	318	
10	0	0	0	0	319	
11	0	0	0	0	320	
12	0	0	0	0	321	
13	0	0	0	0	321	
14	0	0	0	0	321	
15	0	0	0	0	322	
0	0	0	0	0	322	
1	0	0	0	0	322	
2	0	0	0	0	322	
3	0	0	0	0	322	
4	0	0	0	0	321	
5	0	0	0	0	321	
6	0	0	0	0	320	
7	0	0	0	0	320	
8	0	0	0	0	319	
9	0	0	0	0	319	
10	0	0	0	0	318	
11	0	0	0	0	317	
12	0	0	0	0	316	
13	0	0	0	0	316	
14	0	0	0	0	315	
15	0	0	0	0	316	
0	0	0	0	0	316	
1	0	0	0	0	317	
2	0	0	0	0	317	
3	0	0	0	0	315	
4	0	0	0	0	315	
5	0	0	0	0	316	
6	0	0	0	0	316	
7	0	0	0	0	317	
8	0	0	0	0	317	
9	0	0	0	0	318	
10	0	0	0	0	318	
11	0	0	0	0	318	
12	0	0	0	0	317	
13	0	0	0	0	317	
14	0	0	0	0	317	
15	0	0	0	0	317	
0	0	0	0	0	316	
1	0	0	0	0	316	
2	0	0	0	0	315	
3	0	0	0	0	313	
4	0	0	0	0	312	
5	0	0	0	0	311	
6	0	0	0	0	310	
7	0	0	0	0	309	
8	0	0	0	0	309	
9	0	0	0	0	310	
10	0	0	0	0	309	
11	0	0	0	0	310	
12	0	0	0	0	309	
13	0	0	0	0	309	
14	0	0	0	0	310	
15	0	0	0	0	311	
0	0	0	0	0	312	
1	0	0	0	0	313	
2	0	0	0	0	315	
3	0	0	0	0	316	
4	0	0	0	0	318	
5	0	0	0	0	319	
6	0	0	0	0	319	
7	0	0	0	0	319	
8	0	0	0	0	319	
9	0	0	0	0	319	
10	0	0	0	0	320	
11	0	0	0	0	320	
12	0	0	0	0	320	
13	0	0	0	0	319	
14	0	0	0	0	319	
15	0	0	0	0	318	
0	0	0	0	0	319	
1	0	0	0	0	319	
2	0	0	0	0	320	
3	0	0	0	0	321	
4	0	0	0	0	320	
5	0	0	0	0	319	
6	0	0	0	0	318	
7	0	0	0	0	318	
8	0	0	0	0	317	
9	0	0	0	0	317	
10	0	0	0	0	316	
11	0	0	0	0	316	
12	0	0	0	0	316	
13	0	0	0	0	316	
14	0	0	0	0	315	
15	0	0	0	0	315	
0	0	0	0	0	314	
1	0	0	0	0	314	
2	0	0	0	0	314	
3	0	0	0	0	314	
4	0	0	0	0	314	
5	0	0	0	0	315	
6	0	0	0	0	315	
7	0	0	0	0	316	
8	0	0	0	0	316	
9	0	0	0	0	316	
10	0	0	0	0	316	
11	0	0	0	0	316	
12	0	0	0	0	316	
13	0	0	0	0	316	
14	0	0	0	0	316	
15	0	0	0	0	315	
0	0	0	0	0	315	
1	0	0	0	0	315	
2	0	0	0	0	314	
3	0	0	0	0	314	
4	0	0	0	0	313	
5	0	0	0	0	313	
6	0	0	0	0	313	
7	0	0	0	0	312	
8	0	0	0	0	312	
9	0	0	0	0	312	
10	0	0	0	0	312	
11	0	0	0	0	311	
12	0	0	0	0	311	
13	0	0	0	0	311	
14	0	0	0	0	311	
15	0	0	0	0	311	
0	0	0	0	0	311	
1	0	0	0	0	311	
2	0	0	0	0	311	
3	0	0	0	0	311	
4	0	0	0	0	311	
5	0	0	0	0	312	
6	0	0	0	0	312	
7	0	0	0	0	312	
8	0	0	0	0	312	
9	0	0	0	0	312	
10	0	0	0	0	312	
11	0	0	0	0	312	
12	0	0	0	0	312	
13	0	0	0	0	312	
14	0	0	0	0	312	
15	0	0	0	0	312	
0	0	0	0	0	311	
1	0	0	0	0	311	
2	0	0	0	0	310	
3	0	0	0	0	310	
4	0	0	0	0	310	
5	0	0	0	0	310	
6	0	0	0	0	309	
7	0	0	0	0	309	
8	0	0	0	0	308	
9	0	0	0	0	308	
10	0	0	0	0	308	
11	0	0	0	0	308	
12	0	0	0	0	307	
13	0	0	0	0	307	
14	0	0	0	0	307	
15	0	0	0	0	307	
0	0	0	0	0	307	
1	0	0	0	0	307	
2	0	0	0	0	307	
3	0	0	0	0	307	
4	0	0	0	0	308	
5	0	0	0	0	308	
6	0	0	0	0	308	
7	0	0	0	0	308	
8	0	0	0	0	309	
9	0	0	0	0	309	
10	0	0	0	0	309	
11	0	0	0	0	309	
12	0	0	0	0	309	
13	0	0	0	0	309	
14	0	0	0	0	308	
15	0	0	0	0	308	
0	0	0	0	0	308	
1	0	0	0	0	308	
2	0	0	0	0	307	
3	0	0	0	0	307	
4	0	0	0	0	307	
5	0	0	0	0	307	
6	0	0	0	0	307	
7	0	0	0	0	306	
8	0	0	0	0	306	
9	0	0	0	0	306	
10	0	0	0	0	305	
11	0	0	0	0	305	
12	0	0	0	0	305	
13	0	0	0	0	305	
14	0	0	0	0	305	
15	0	0	0	0	305	
0	0	0	0	0	305	
1	0	0	0	0	305	
2	0	0	0	0	304	
3	0	0	0	0	304	
4	0	0	0	0	304	
5	0	0	0	0	304	
6	0	0	0	0	304	
7	0	0	0	0	304	
8	0	0	0	0	304	
9	0	0	0	0	304	
10	0	0	0	0	303	
11	0	0	0	0	304	
12	0	0	0	0	303	
13	0	0	0	0	303	
14	0	0	0	0	303	
15	0	0	0	0	303	
0	0	0	0	0	303	
1	0	0	0	0	303	
2	0	0	0	0	303	
3	0	0	0	0	303	
4	0	0	0	0	302	
5	0	0	0	0	302	
6	0	0	0	0	302	
7	0	0	0	0	302	
8	0	0	0	0	302	
9	0	0	0	0	302	
10	0	0	0	0	302	
11	0	0	0	0	302	
12	0	0	0	0	301	
13	0	0	0	0	301	
14	0	0	0	0	301	
15	0	0	0	0	301	
0	0	0	0	0	301	
1	0	0	0	0	301	
2	0	0	0	0	300	
3	0	0	0	0	301	
4	0	0	0	0	301	
5	0	0	0	0	300	
6	0	0	0	0	300	
7	0	0	0	0	300	
8	0	0	0	0	300	
9	0	0	0	0	300	
10	0	0	0	0	300	
11	0	0	0	0	300	
12	0	0	0	0	300	
13	0	0	0	0	300	
14	0	0	0	0	299	
15	0	0	0	0	300	
0	0	0	0	0	299	
1	0	0	0	0	299	
2	0	0	0	0	299	
3	0	0	0	0	299	
4	0	0	0	0	299	
5	0	0	0	0	299	
6	0	0	0	0	299	
7	0	0	0	0	299	
8	0	0	0	0	299	
9	0	0	0	0	299	
10	0	0	0	0	298	
11	0	0	0	0	298	
12	0	0	0	0	298	
13	0	0	0	0	298	
14	0	0	0	0	298	
15	0	0	0	0	298	
0	0	0	0	0	298	
1	0	0	0	0	298	
2	0	0	0	0	297	
3	0	0	0	0	297	
4	0	0	0	0	297	
5	0	0	0	0	297	
6	0	0	0	0	297	
7	0	0	0	0	297	
8	0	0	0	0	297	
9	0	0	0	0	297	
10	0	0	0	0	296	
11	0	0	0	0	297	
12	0	0	0	0	296	
13	0	0	0	0	296	
14	0	0	0	0	296	
15	0	0	0	0	297	
0	0	0	0	0	296	
1	0	0	0	0	297	
2	0	0	0	0	296	
3	0	0	0	0	297	
4	0	0	0	0	297	
5	0	0	0	0	297	
6	0	0	0	0	296	
7	0	0	0	0	296	
8	0	0	0	0	296	
9	0	0	0	0	296	
10	0	0	0	0	296	
11	0	0	0	0	296	
12	0	0	0	0	296	
13	0	0	0	0	296	
14	0	0	0	0	295	
15	0	0	0	0	295	
0	0	0	0	0	295	
1	0	0	0	0	295	
2	0	0	0	0	295	
3	0	0	0	0	295	
4	0	0	0	0	295	
5	0	0	0	0	295	
6	0	0	0	0	295	
7	0	0	0	0	295	
8	0	0	0	0	296	
9	0	0	0	0	297	
10	0	0	0	0	296	
11	0	0	0	0	296	
12	0	0	0	0	296	
13	0	0	0	0	296	
14	0	0	0	0	295	
15	0	0	0	0	295	
0	0	0	0	0	295	
1	0	0	0	0	295	
2	0	0	0	0	295	
3	0	0	0	0	295	
4	0	0	0	0	294	
5	0	0	0	0	294	
6	0	0	0	0	293	
7	0	0	0	0	293	
8	0	0	0	0	292	
9	0	0	0	0	293	
10	0	0	0	0	292	
11	0	0	0	0	292	
12	0	0	0	0	292	
13	0	0	0	0	292	
14	0	0	0	0	292	
15	0	0	0	0	292	
0	0	0	0	0	292	
1	0	0	0	0	292	
2	0	0	0	0	291	
3	0	0	0	0	291	
4	0	0	0	0	291	
5	0	0	0	0	291	
6	0	0	0	0	291	
7	0	0	0	0	293	
8	0	0	0	0	293	
9	0	0	0	0	294	
10	0	0	0	0	294	
11	0	0	0	0	294	
12	0	0	0	0	294	
13	0	0	0	0	294	
14	0	0	0	0	295	
15	0	0	0	0	295	
0	0	0	0	0	296	
1	0	0	0	0	297	
2	0	0	0	0	298	
3	0	0	0	0	300	
4	0	0	0	0	300	
5	0	0	0	0	300	
6	0	0	0	0	300	
7	0	0	0	0	300	
8	0	0	0	0	301	
9	0	0	0	0	301	
10	0	0	0	0	300	
11	0	0	0	0	300	
12	0	0	0	0	300	
13	0	0	0	0	299	
14	0	0	0	0	299	
15	0	0	0	0	298	
0	0	0	0	0	298	
1	0	0	0	0	297	
2	0	0	0	0	297	
3	0	0	0	0	297	
4	0	0	0	0	296	
5	0	0	0	0	296	
6	0	0	0	0	296	
7	0	0	0	0	295	
8	0	0	0	0	293	
9	0	0	0	0	293	
10	0	0	0	0	293	
11	0	0	0	0	292	
12	0	0	0	0	290	
13	0	0	0	0	290	
14	0	0	0	0	289	
15	0	0	0	0	287	
0	0	0	0	0	287	
1	0	0	0	0	287	
2	0	0	0	0	287	
3	0	0	0	0	288	
4	0	0	0	0	287	
5	0	0	0	0	287	
6	0	0	0	0	287	
7	0	0	0	0	285	
8	0	0	0	0	284	
9	0	0	0	0	283	
10	0	0	0	0	282	
11	0	0	0	0	281	
12	0	0	0	0	281	
13	0	0	0	0	281	
14	0	0	0	0	281	
15	0	0	0	0	280	
0	0	0	0	0	278	
1	0	0	0	0	279	
2	0	0	0	0	281	
3	0	0	0	0	282	
4	0	0	0	0	283	
5	0	0	0	0	283	
6	0	0	0	0	280	
7	0	0	0	0	283	
8	0	0	0	0	284	
9	0	0	0	0	286	
10	0	0	0	0	282	
11	0	0	0	0	277	
12	0	0	0	0	278	
13	0	0	0	0	283	
14	0	0	0	0	282	
15	0	0	0	0	281	
0	0	0	0	0	281	
1	0	0	0	0	282	
2	0	0	0	0	284	
3	0	0	0	0	285	
4	0	0	0	0	286	
5	0	0	0	0	287	
6	0	0	0	0	287	
7	0	0	0	0	287	
8	0	0	0	0	287	
9	0	0	0	0	287	
10	0	0	0	0	287	
11	0	0	0	0	287	
12	0	0	0	0	287	
13	0	0	0	0	287	
14	0	0	0	0	287	
15	0	0	0	0	287	
0	0	0	0	0	286	
1	0	0	0	0	286	
2	0	0	0	0	286	
3	0	0	0	0	286	
4	0	0	0	0	287	
5	0	0	0	0	287	
6	0	0	0	0	288	
7	0	0	0	0	289	
8	0	0	0	0	290	
9	0	0	0	0	291	
10	0	0	0	0	291	
11	0	0	0	0	292	
12	0	0	0	0	293	
13	0	0	0	0	294	
14	0	0	0	0	294	
15	0	0	0	0	294	
0	0	0	0	0	294	
1	0	0	0	0	294	
2	0	0	0	0	293	
3	0	0	0	0	293	
4	0	0	0	0	292	
5	0	0	0	0	292	
6	0	0	0	0	291	
7	0	0	0	0	291	
8	0	0	0	0	291	
9	0	0	0	0	290	
10	0	0	0	0	290	
11	0	0	0	0	289	
12	0	0	0	0	289	
13	0	0	0	0	289	
14	0	0	0	0	288	
15	0	0	0	0	288	
0	0	0	0	0	287	
1	0	0	0	0	287	
2	0	0	0	0	287	
3	0	0	0	0	287	
4	0	0	0	0	287	
5	0	0	0	0	287	
6	0	0	0	0	286	
7	0	0	0	0	286	
8	0	0	0	0	286	
9	0	0	0	0	286	
10	0	0	0	0	286	
11	0	0	0	0	286	
12	0	0	0	0	286	
13	0	0	0	0	286	
14	0	0	0	0	285	
15	0	0	0	0	286	
0	0	0	0	0	285	
1	0	0	0	0	285	
2	0	0	0	0	285	
3	0	0	0	0	285	
4	0	0	0	0	285	
5	0	0	0	0	285	
6	0	0	0	0	285	
7	0	0	0	0	285	
8	0	0	0	0	285	
9	0	0	0	0	285	
10	0	0	0	0	285	
11	0	0	0	0	285	
12	0	0	0	0	284	
13	0	0	0	0	284	
14	0	0	0	0	284	
15	0	0	0	0	284	
0	0	0	0	0	284	
1	0	0	0	0	284	
2	0	0	0	0	283	
3	0	0	0	0	283	
4	0	0	0	0	283	
5	0	0	0	0	283	
6	0	0	0	0	283	
7	0	0	0	0	283	
8	0	0	0	0	283	
9	0	0	0	0	283	
10	0	0	0	0	282	
11	0	0	0	0	282	
12	0	0	0	0	282	
13	0	0	0	0	282	
14	0	0	0	0	281	
15	0	0	0	0	282	
0	0	0	0	0	281	
1	0	0	0	0	282	
2	0	0	0	0	281	
3	0	0	0	0	282	
4	0	0	0	0	281	
5	0	0	0	0	282	
6	0	0	0	0	281	
7	0	0	0	0	281	
8	0	0	0	0	281	
9	0	0	0	0	281	
10	0	0	0	0	281	
11	0	0	0	0	281	
12	0	0	0	0	281	
13	0	0	0	0	281	
14	0	0	0	0	281	
15	0	0	0	0	281	
0	0	0	0	0	280	
1	0	0	0	0	280	
2	0	0	0	0	280	
3	0	0	0	0	280	
4	0	0	0	0	280	
5	0	0	0	0	280	
6	0	0	0	0	280	
7	0	0	0	0	280	
8	0	0	0	0	280	
9	0	0	0	0	280	
10	0	0	0	0	279	
11	0	0	0	0	279	
12	0	0	0	0	279	
13	0	0	0	0	279	
14	0	0	0	0	279	
15	0	0	0	0	279	
0	0	0	0	0	279	
1	0	0	0	0	279	
2	0	0	0	0	279	
3	0	0	0	0	279	
4	0	0	0	0	279	
5	0	0	0	0	279	
6	0	0	0	0	279	
7	0	0	0	0	279	
8	0	0	0	0	278	
9	0	0	0	0	278	
10	0	0	0	0	278	
11	0	0	0	0	278	
12	0	0	0	0	278	
13	0	0	0	0	278	
14	0	0	0	0	277	
15	0	0	0	0	277	
0	0	0	0	0	277	
1	0	0	0	0	277	
2	0	0	0	0	277	
3	0	0	0	0	277	
4	0	0	0	0	276	
5	0	0	0	0	277	
6	0	0	0	0	276	
7	0	0	0	0	276	
8	0	0	0	0	276	
9	0	0	0	0	277	
10	0	0	0	0	277	
11	0	0	0	0	278	
12	0	0	0	0	279	
13	0	0	0	0	280	
14	0	0	0	0	280	
15	0	0	0	0	281	
0	0	0	0	0	282	
1	0	0	0	0	283	
2	0	0	0	0	284	
3	0	0	0	0	284	
4	0	0	0	0	284	
5	0	0	0	0	285	
6	0	0	0	0	285	
7	0	0	0	0	285	
8	0	0	0	0	285	
9	0	0	0	0	285	
10	0	0	0	0	284	
11	0	0	0	0	284	
12	0	0	0	0	284	
13	0	0	0	0	283	
14	0	0	0	0	283	
15	0	0	0	0	282	
0	0	0	0	0	281	
1	0	0	0	0	281	
2	0	0	0	0	281	
3	0	0	0	0	280	
4	0	0	0	0	280	
5	0	0	0	0	280	
6	0	0	0	0	279	
7	0	0	0	0	279	
8	0	0	0	0	279	
9	0	0	0	0	278	
10	0	0	0	0	278	
11	0	0	0	0	278	
12	0	0	0	0	277	
13	0	0	0	0	277	
14	0	0	0	0	277	
15	0	0	0	0	277	
0	0	0	0	0	276	
1	0	0	0	0	276	
2	0	0	0	0	276	
3	0	0	0	0	276	
4	0	0	0	0	275	
5	0	0	0	0	275	
6	0	0	0	0	275	
7	0	0	0	0	275	
8	0	0	0	0	275	
9	0	0	0	0	275	
10	0	0	0	0	275	
11	0	0	0	0	275	
12	0	0	0	0	275	
13	0	0	0	0	275	
14	0	0	0	0	275	
15	0	0	0	0	275	
0	0	0	0	0	275	
1	0	0	0	0	275	
2	0	0	0	0	275	
3	0	0	0	0	275	
4	0	0	0	0	275	
5	0	0	0	0	275	
6	0	0	0	0	274	
7	0	0	0	0	274	
8	0	0	0	0	274	
9	0	0	0	0	274	
10	0	0	0	0	274	
11	0	0	0	0	274	
12	0	0	0	0	273	
13	0	0	0	0	274	
14	0	0	0	0	273	
15	0	0	0	0	273	
0	0	0	0	0	273	
1	0	0	0	0	273	
2	0	0	0	0	273	
3	0	0	0	0	273	
4	0	0	0	0	273	
5	0	0	0	0	273	
6	0	0	0	0	273	
7	0	0	0	0	273	
8	0	0	0	0	273	
9	0	0	0	0	274	
10	0	0	0	0	274	
11	0	0	0	0	275	
12	0	0	0	0	275	
13	0	0	0	0	275	
14	0	0	0	0	275	
15	0	0	0	0	275	
0	0	0	0	0	275	
1	0	0	0	0	275	
2	0	0	0	0	275	
3	0	0	0	0	275	
4	0	0	0	0	275	
5	0	0	0	0	275	
6	0	0	0	0	275	
7	0	0	0	0	275	
8	0	0	0	0	275	
9	0	0	0	0	276	
10	0	0	0	0	276	
11	0	0	0	0	276	
12	0	0	0	0	275	
13	0	0	0	0	276	
14	0	0	0	0	275	
15	0	0	0	0	275	
0	0	0	0	0	275	
1	0	0	0	0	275	
2	0	0	0	0	275	
3	0	0	0	0	275	
4	0	0	0	0	274	
5	0	0	0	0	274	
6	0	0	0	0	273	
7	0	0	0	0	273	
8	0	0	0	0	273	
9	0	0	0	0	273	
10	0	0	0	0	272	
11	0	0	0	0	273	
12	0	0	0	0	272	
13	0	0	0	0	272	
14	0	0	0	0	272	
15	0	0	0	0	272	
0	0	0	0	0	272	
1	0	0	0	0	272	
2	0	0	0	0	271	
3	0	0	0	0	272	
4	0	0	0	0	271	
5	0	0	0	0	272	
6	0	0	0	0	271	
7	0	0	0	0	272	
8	0	0	0	0	271	
9	0	0	0	0	272	
10	0	0	0	0	271	
11	0	0	0	0	272	
12	0	0	0	0	271	
13	0	0	0	0	271	
14	0	0	0	0	271	
15	0	0	0	0	271	
0	0	0	0	0	271	
1	0	0	0	0	271	
2	0	0	0	0	271	
3	0	0	0	0	271	
4	0	0	0	0	271	
5	0	0	0	0	271	
6	0	0	0	0	270	
7	0	0	0	0	270	
8	0	0	0	0	270	
9	0	0	0	0	270	
10	0	0	0	0	270	
11	0	0	0	0	270	
12	0	0	0	0	270	
13	0	0	0	0	270	
14	0	0	0	0	269	
15	0	0	0	0	269	
0	0	0	0	0	269	
1	0	0	0	0	269	
2	0	0	0	0	269	
3	0	0	0	0	269	
4	0	0	0	0	269	
5	0	0	0	0	269	
6	0	0	0	0	268	
7	0	0	0	0	269	
8	0	0	0	0	268	
9	0	0	0	0	268	
10	0	0	0	0	268	
11	0	0	0	0	268	
12	0	0	0	0	268	
13	0	0	0	0	268	
14	0	0	0	0	268	
15	0	0	0	0	268	
0	0	0	0	0	268	
1	0	0	0	0	268	
2	0	0	0	0	268	
3	0	0	0	0	268	
4	0	0	0	0	268	
5	0	0	0	0	268	
6	0	0	0	0	268	
7	0	0	0	0	268	
8	0	0	0	0	267	
9	0	0	0	0	268	
10	0	0	0	0	267	
11	0	0	0	0	267	
12	0	0	0	0	267	
13	0	0	0	0	267	
14	0	0	0	0	267	
15	0	0	0	0	267	
0	0	0	0	0	267	
1	0	0	0	0	267	
2	0	0	0	0	267	
3	0	0	0	0	267	
4	0	0	0	0	267	
5	0	0	0	0	267	
6	0	0	0	0	267	
7	0	0	0	0	267	
8	0	0	0	0	267	
9	0	0	0	0	267	
10	0	0	0	0	266	
11	0	0	0	0	267	
12	0	0	0	0	266	
13	0	0	0	0	267	
14	0	0	0	0	266	
15	0	0	0	0	267	
0	0	0	0	0	266	
1	0	0	0	0	267	
2	0	0	0	0	266	
3	0	0	0	0	267	
4	0	0	0	0	266	
5	0	0	0	0	267	
6	0	0	0	0	266	
7	0	0	0	0	267	
8	0	0	0	0	266	
9	0	0	0	0	267	
10	0	0	0	0	266	
11	0	0	0	0	266	
12	0	0	0	0	266	
13	0	0	0	0	266	
14	0	0	0	0	266	
15	0	0	0	0	266	
0	0	0	0	0	266	
1	0	0	0	0	266	
2	0	0	0	0	265	
3	0	0	0	0	266	
4	0	0	0	0	265	
5	0	0	0	0	265	
6	0	0	0	0	265	
7	0	0	0	0	265	
8	0	0	0	0	265	
9	0	0	0	0	265	
10	0	0	0	0	265	
11	0	0	0	0	265	
12	0	0	0	0	265	
13	0	0	0	0	265	
14	0	0	0	0	264	
15	0	0	0	0	264	
0	0	0	0	0	264	
1	0	0	0	0	264	
2	0	0	0	0	264	
3	0	0	0	0	264	
4	0	0	0	0	264	
5	0	0	0	0	264	
6	0	0	0	0	264	
7	0	0	0	0	264	
8	0	0	0	0	264	
9	0	0	0	0	265	
10	0	0	0	0	265	
11	0	0	0	0	266	
12	0	0	0	0	266	
13	0	0	0	0	267	
14	0	0	0	0	267	
15	0	0	0	0	268	
0	0	0	0	0	268	
1	0	0	0	0	269	
2	0	0	0	0	270	
3	0	0	0	0	271	
4	0	0	0	0	272	
5	0	0	0	0	272	
6	0	0	0	0	272	
7	0	0	0	0	272	
8	0	0	0	0	271	
9	0	0	0	0	271	
10	0	0	0	0	271	
11	0	0	0	0	271	
12	0	0	0	0	271	
13	0	0	0	0	270	
14	0	0	0	0	270	
15	0	0	0	0	270	
0	0	0	0	0	270	
1	0	0	0	0	270	
2	0	0	0	0	270	
3	0	0	0	0	270	
4	0	0	0	0	270	
5	0	0	0	0	271	
6	0	0	0	0	271	
7	0	0	0	0	273	
8	0	0	0	0	274	
9	0	0	0	0	275	
10	0	0	0	0	276	
11	0	0	0	0	278	
12	0	0	0	0	278	
13	0	0	0	0	279	
14	0	0	0	0	279	
15	0	0	0	0	280	
0	0	0	0	0	280	
1	0	0	0	0	280	
2	0	0	0	0	280	
3	0	0	0	0	281	
4	0	0	0	0	280	
5	0	0	0	0	280	
6	0	0	0	0	280	
7	0	0	0	0	281	
8	0	0	0	0	280	
9	0	0	0	0	280	
10	0	0	0	0	280	
11	0	0	0	0	280	
12	0	0	0	0	279	
13	0	0	0	0	279	
14	0	0	0	0	279	
15	0	0	0	0	279	
0	0	0	0	0	278	
1	0	0	0	0	278	
2	0	0	0	0	277	
3	0	0	0	0	277	
4	0	0	0	0	277	
5	0	0	0	0	277	
6	0	0	0	0	277	
7	0	0	0	0	277	
8	0	0	0	0	276	
9	0	0	0	0	277	
10	0	0	0	0	276	
11	0	0	0	0	276	
12	0	0	0	0	276	
13	0	0	0	0	276	
14	0	0	0	0	275	
15	0	0	0	0	276	
0	0	0	0	0	275	
1	0	0	0	0	275	
2	0	0	0	0	275	
3	0	0	0	0	275	
4	0	0	0	0	275	
5	0	0	0	0	275	
6	0	0	0	0	275	
7	0	0	0	0	275	
8	0	0	0	0	275	
9	0	0	0	0	275	
10	0	0	0	0	275	
11	0	0	0	0	275	
12	0	0	0	0	275	
13	0	0	0	0	275	
14	0	0	0	0	275	
15	0	0	0	0	275	
0	0	0	0	0	274	
1	0	0	0	0	274	
2	0	0	0	0	274	
3	0	0	0	0	274	
4	0	0	0	0	273	
5	0	0	0	0	274	
6	0	0	0	0	273	
7	0	0	0	0	273	
8	0	0	0	0	273	
9	0	0	0	0	273	
10	0	0	0	0	273	
11	0	0	0	0	273	
12	0	0	0	0	273	
13	0	0	0	0	273	
14	0	0	0	0	272	
15	0	0	0	0	273	
0	0	0	0	0	272	
1	0	0	0	0	272	
2	0	0	0	0	272	
3	0	0	0	0	272	
4	0	0	0	0	272	
5	0	0	0	0	272	
6	0	0	0	0	272	
7	0	0	0	0	272	
8	0	0	0	0	271	
9	0	0	0	0	272	
10	0	0	0	0	271	
11	0	0	0	0	271	
12	0	0	0	0	271	
13	0	0	0	0	271	
14	0	0	0	0	271	
15	0	0	0	0	271	
0	0	0	0	0	272	
1	0	0	0	0	273	
2	0	0	0	0	273	
3	0	0	0	0	274	
4	0	0	0	0	273	
5	0	0	0	0	274	
6	0	0	0	0	274	
7	0	0	0	0	275	
8	0	0	0	0	275	
9	0	0	0	0	275	
10	0	0	0	0	275	
11	0	0	0	0	275	
12	0	0	0	0	275	
13	0	0	0	0	275	
14	0	0	0	0	277	
15	0	0	0	0	279	
0	0	0	0	0	278	
1	0	0	0	0	278	
2	0	0	0	0	278	
3	0	0	0	0	278	
4	0	0	0	0	278	
5	0	0	0	0	278	
6	0	0	0	0	277	
7	0	0	0	0	278	
8	0	0	0	0	278	
9	0	0	0	0	279	
10	0	0	0	0	280	
11	0	0	0	0	281	
12	0	0	0	0	282	
13	0	0	0	0	283	
14	0	0	0	0	283	
15	0	0	0	0	283	
0	0	0	0	0	283	
1	0	0	0	0	283	
2	0	0	0	0	284	
3	0	0	0	0	284	
4	0	0	0	0	283	
5	0	0	0	0	283	
6	0	0	0	0	283	
7	0	0	0	0	283	
8	0	0	0	0	283	
9	0	0	0	0	284	
10	0	0	0	0	284	
11	0	0	0	0	285	
12	0	0	0	0	286	
13	0	0	0	0	285	
14	0	0	0	0	284	
15	0	0	0	0	284	
0	0	0	0	0	283	
1	0	0	0	0	282	
2	0	0	0	0	282	
3	0	0	0	0	282	
4	0	0	0	0	282	
5	0	0	0	0	282	
6	0	0	0	0	282	
7	0	0	0	0	282	
8	0	0	0	0	282	
9	0	0	0	0	282	
10	0	0	0	0	281	
11	0	0	0	0	281	
12	0	0	0	0	281	
13	0	0	0	0	281	
14	0	0	0	0	281	
15	0	0	0	0	281	
0	0	0	0	0	280	
1	0	0	0	0	280	
2	0	0	0	0	280	
3	0	0	0	0	280	
4	0	0	0	0	279	
5	0	0	0	0	280	
6	0	0	0	0	280	
7	0	0	0	0	280	
8	0	0	0	0	280	
9	0	0	0	0	279	
10	0	0	0	0	279	
11	0	0	0	0	279	
12	0	0	0	0	279	
13	0	0	0	0	279	
14	0	0	0	0	279	
15	0	0	0	0	280	
0	0	0	0	0	280	
1	0	0	0	0	282	
2	0	0	0	0	283	
3	0	0	0	0	283	
4	0	0	0	0	283	
5	0	0	0	0	283	
6	0	0	0	0	283	
7	0	0	0	0	283	
8	0	0	0	0	283	
9	0	0	0	0	283	
10	0	0	0	0	281	
11	0	0	0	0	280	
12	0	0	0	0	279	
13	0	0	0	0	279	
14	0	0	0	0	278	
15	0	0	0	0	278	
0	0	0	0	0	278	
1	0	0	0	0	278	
2	0	0	0	0	278	
3	0	0	0	0	278	
4	0	0	0	0	278	
5	0	0	0	0	278	
6	0	0	0	0	277	
7	0	0	0	0	278	
8	0	0	0	0	277	
9	0	0	0	0	278	
10	0	0	0	0	277	
11	0	0	0	0	278	
12	0	0	0	0	277	
13	0	0	0	0	277	
14	0	0	0	0	277	
15	0	0	0	0	278	
0	0	0	0	0	277	
1	0	0	0	0	278	
2	0	0	0	0	277	
3	0	0	0	0	277	
4	0	0	0	0	277	
5	0	0	0	0	277	
6	0	0	0	0	277	
7	0	0	0	0	277	
8	0	0	0	0	277	
9	0	0	0	0	277	
10	0	0	0	0	276	
11	0	0	0	0	276	
12	0	0	0	0	276	
13	0	0	0	0	276	
14	0	0	0	0	276	
15	0	0	0	0	276	
0	0	0	0	0	276	
1	0	0	0	0	276	
2	0	0	0	0	276	
3	0	0	0	0	276	
4	0	0	0	0	276	
5	0	0	0	0	277	
6	0	0	0	0	276	
7	0	0	0	0	276	
8	0	0	0	0	276	
9	0	0	0	0	276	
10	0	0	0	0	276	
11	0	0	0	0	276	
12	0	0	0	0	276	
13	0	0	0	0	276	
14	0	0	0	0	275	
15	0	0	0	0	275	
0	0	0	0	0	275	
1	0	0	0	0	275	
2	0	0	0	0	275	
3	0	0	0	0	275	
4	0	0	0	0	275	
5	0	0	0	0	275	
6	0	0	0	0	275	
7	0	0	0	0	275	
8	0	0	0	0	274	
9	0	0	0	0	274	
10	0	0	0	0	274	
11	0	0	0	0	274	
12	0	0	0	0	273	
13	0	0	0	0	274	
14	0	0	0	0	273	
15	0	0	0	0	273	
0	0	0	0	0	273	
1	0	0	0	0	273	
2	0	0	0	0	273	
3	0	0	0	0	273	
4	0	0	0	0	273	
5	0	0	0	0	273	
6	0	0	0	0	273	
7	0	0	0	0	273	
8	0	0	0	0	273	
9	0	0	0	0	272	
10	0	0	0	0	272	
11	0	0	0	0	273	
12	0	0	0	0	272	
13	0	0	0	0	272	
14	0	0	0	0	272	
15	0	0	0	0	272	
0	0	0	0	0	272	
1	0	0	0	0	272	
2	0	0	0	0	272	
3	0	0	0	0	272	
4	0	0	0	0	272	
5	0	0	0	0	272	
6	0	0	0	0	272	
7	0	0	0	0	272	
8	0	0	0	0	272	
9	0	0	0	0	271	
10	0	0	0	0	271	
11	0	0	0	0	271	
12	0	0	0	0	271	
13	0	0	0	0	271	
14	0	0	0	0	271	
15	0	0	0	0	271	
0	0	0	0	0	271	
1	0	0	0	0	271	
2	0	0	0	0	271	
3	0	0	0	0	271	
4	0	0	0	0	271	
5	0	0	0	0	271	
6	0	0	0	0	271	
7	0	0	0	0	271	
8	0	0	0	0	270	
9	0	0	0	0	271	
10	0	0	0	0	270	
11	0	0	0	0	270	
12	0	0	0	0	270	
13	0	0	0	0	270	
14	0	0	0	0	270	
15	0	0	0	0	270	
0	0	0	0	0	270	
1	0	0	0	0	270	
2	0	0	0	0	270	
3	0	0	0	0	270	
4	0	0	0	0	270	
5	0	0	0	0	270	
6	0	0	0	0	270	
7	0	0	0	0	270	
8	0	0	0	0	270	
9	0	0	0	0	270	
10	0	0	0	0	270	
11	0	0	0	0	270	
12	0	0	0	0	269	
13	0	0	0	0	270	
14	0	0	0	0	269	
15	0	0	0	0	269	
0	0	0	0	0	269	
1	0	0	0	0	269	
2	0	0	0	0	269	
3	0	0	0	0	269	
4	0	0	0	0	269	
5	0	0	0	0	269	
6	0	0	0	0	268	
7	0	0	0	0	269	
8	0	0	0	0	268	
9	0	0	0	0	268	
10	0	0	0	0	268	
11	0	0	0	0	268	
12	0	0	0	0	268	
13	0	0	0	0	268	
14	0	0	0	0	268	
15	0	0	0	0	268	
0	0	0	0	0	268	
1	0	0	0	0	268	
2	0	0	0	0	268	
3	0	0	0	0	268	
4	0	0	0	0	268	
5	0	0	0	0	268	
6	0	0	0	0	267	
7	0	0	0	0	267	
8	0	0	0	0	267	
9	0	0	0	0	268	
10	0	0	0	0	267	
11	0	0	0	0	267	
12	0	0	0	0	267	
13	0	0	0	0	267	
14	0	0	0	0	267	
15	0	0	0	0	268	
0	0	0	0	0	267	
1	0	0	0	0	267	
2	0	0	0	0	267	
3	0	0	0	0	267	
4	0	0	0	0	267	
5	0	0	0	0	267	
6	0	0	0	0	267	
7	0	0	0	0	267	
8	0	0	0	0	267	
9	0	0	0	0	267	
10	0	0	0	0	267	
11	0	0	0	0	267	
12	0	0	0	0	267	
13	0	0	0	0	267	
14	0	0	0	0	267	
15	0	0	0	0	267	
0	0	0	0	0	267	
1	0	0	0	0	267	
2	0	0	0	0	267	
3	0	0	0	0	267	
4	0	0	0	0	267	
5	0	0	0	0	267	
6	0	0	0	0	267	
7	0	0	0	0	267	
8	0	0	0	0	267	
9	0	0	0	0	267	
10	0	0	0	0	267	
11	0	0	0	0	267	
12	0	0	0	0	267	
13	0	0	0	0	267	
14	0	0	0	0	267	
15	0	0	0	0	267	
0	0	0	0	0	267	
1	0	0	0	0	267	
2	0	0	0	0	267	
3	0	0	0	0	267	
4	0	0	0	0	267	
5	0	0	0	0	267	
6	0	0	0	0	267	
7	0	0	0	0	267	
8	0	0	0	0	267	
9	0	0	0	0	267	
10	0	0	0	0	267	
11	0	0	0	0	267	
12	0	0	0	0	267	
13	0	0	0	0	267	
14	0	0	0	0	266	
15	0	0	0	0	267	
0	0	0	0	0	266	
1	0	0	0	0	266	
2	0	0	0	0	266	
3	0	0	0	0	266	
4	0	0	0	0	265	
5	0	0	0	0	266	
6	0	0	0	0	265	
7	0	0	0	0	265	
8	0	0	0	0	265	
9	0	0	0	0	265	
10	0	0	0	0	265	
11	0	0	0	0	265	
12	0	0	0	0	265	
13	0	0	0	0	267	
14	0	0	0	0	267	
15	0	0	0	0	267	
0	0	0	0	0	267	
1	0	0	0	0	267	
2	0	0	0	0	267	
3	0	0	0	0	267	
4	0	0	0	0	267	
5	0	0	0	0	267	
6	0	0	0	0	267	
7	0	0	0	0	267	
8	0	0	0	0	267	
9	0	0	0	0	267	
10	0	0	0	0	267	
11	0	0	0	0	267	
12	0	0	0	0	267	
13	0	0	0	0	267	
14	0	0	0	0	267	
15	0	0	0	0	268	
0	0	0	0	0	268	
1	0	0	0	0	269	
2	0	0	0	0	270	
3	0	0	0	0	271	
4	0	0	0	0	271	
5	0	0	0	0	273	
6	0	0	0	0	273	
7	0	0	0	0	274	
8	0	0	0	0	275	
9	0	0	0	0	275	
10	0	0	0	0	275	
11	0	0	0	0	276	
12	0	0	0	0	276	
13	0	0	0	0	275	
14	0	0	0	0	275	
15	0	0	0	0	275	
0	0	0	0	0	276	
1	0	0	0	0	276	
2	0	0	0	0	275	
3	0	0	0	0	275	
4	0	0	0	0	274	
5	0	0	0	0	274	
6	0	0	0	0	273	
7	0	0	0	0	273	
8	0	0	0	0	273	
9	0	0	0	0	273	
10	0	0	0	0	273	
11	0	0	0	0	273	
12	0	0	0	0	274	
13	0	0	0	0	273	
14	0	0	0	0	273	
15	0	0	0	0	274	
0	0	0	0	0	275	
1	0	0	0	0	276	
2	0	0	0	0	277	
3	0	0	0	0	278	
4	0	0	0	0	278	
5	0	0	0	0	279	
6	0	0	0	0	279	
7	0	0	0	0	280	
8	0	0	0	0	280	
9	0	0	0	0	280	
10	0	0	0	0	280	
11	0	0	0	0	280	
12	0	0	0	0	280	
13	0	0	0	0	280	
14	0	0	0	0	280	
15	0	0	0	0	280	
0	0	0	0	0	280	
1	0	0	0	0	280	
2	0	0	0	0	280	
3	0	0	0	0	280	
4	0	0	0	0	279	
5	0	0	0	0	279	
6	0	0	0	0	279	
7	0	0	0	0	279	
8	0	0	0	0	278	
9	0	0	0	0	279	
10	0	0	0	0	278	
11	0	0	0	0	278	
12	0	0	0	0	278	
13	0	0	0	0	278	
14	0	0	0	0	278	
15	0	0	0	0	278	
0	0	0	0	0	278	
1	0	0	0	0	278	
2	0	0	0	0	277	
3	0	0	0	0	277	
4	0	0	0	0	277	
5	0	0	0	0	277	
6	0	0	0	0	276	
7	0	0	0	0	276	
8	0	0	0	0	276	
9	0	0	0	0	276	
10	0	0	0	0	276	
11	0	0	0	0	276	
12	0	0	0	0	276	
13	0	0	0	0	276	
14	0	0	0	0	276	
15	0	0	0	0	276	
0	0	0	0	0	276	
1	0	0	0	0	276	
2	0	0	0	0	276	
3	0	0	0	0	276	
4	0	0	0	0	276	
5	0	0	0	0	276	
6	0	0	0	0	276	
7	0	0	0	0	276	
8	0	0	0	0	276	
9	0	0	0	0	276	
10	0	0	0	0	276	
11	0	0	0	0	276	
12	0	0	0	0	276	
13	0	0	0	0	276	
14	0	0	0	0	276	
15	0	0	0	0	276	
0	0	0	0	0	276	
1	0	0	0	0	276	
2	0	0	0	0	276	
3	0	0	0	0	276	
4	0	0	0	0	276	
5	0	0	0	0	276	
6	0	0	0	0	276	
7	0	0	0	0	276	
8	0	0	0	0	276	
9	0	0	0	0	276	
10	0	0	0	0	275	
11	0	0	0	0	276	
12	0	0	0	0	275	
13	0	0	0	0	275	
14	0	0	0	0	275	
15	0	0	0	0	275	
0	0	0	0	0	274	
1	0	0	0	0	273	
2	0	0	0	0	274	
3	0	0	0	0	275	
4	0	0	0	0	275	
5	0	0	0	0	274	
6	0	0	0	0	274	
7	0	0	0	0	274	
8	0	0	0	0	274	
9	0	0	0	0	274	
10	0	0	0	0	274	
11	0	0	0	0	274	
12	0	0	0	0	274	
13	0	0	0	0	275	
14	0	0	0	0	275	
15	0	0	0	0	275	
0	0	0	0	0	274	
1	0	0	0	0	275	
2	0	0	0	0	274	
3	0	0	0	0	275	
4	0	0	0	0	274	
5	0	0	0	0	275	
6	0	0	0	0	275	
7	0	0	0	0	276	
8	0	0	0	0	276	
9	0	0	0	0	278	
10	0	0	0	0	278	
11	0	0	0	0	279	
12	0	0	0	0	280	
13	0	0	0	0	281	
14	0	0	0	0	282	
15	0	0	0	0	282	
0	0	0	0	0	283	
1	0	0	0	0	283	
2	0	0	0	0	283	
3	0	0	0	0	284	
4	0	0	0	0	283	
5	0	0	0	0	284	
6	0	0	0	0	283	
7	0	0	0	0	283	
8	0	0	0	0	283	
9	0	0	0	0	283	
10	0	0	0	0	282	
11	0	0	0	0	282	
12	0	0	0	0	281	
13	0	0	0	0	281	
14	0	0	0	0	280	
15	0	0	0	0	281	
0	0	0	0	0	280	
1	0	0	0	0	280	
2	0	0	0	0	280	
3	0	0	0	0	280	
4	0	0	0	0	279	
5	0	0	0	0	279	
6	0	0	0	0	279	
7	0	0	0	0	279	
8	0	0	0	0	279	
9	0	0	0	0	279	
10	0	0	0	0	278	
11	0	0	0	0	278	
12	0	0	0	0	278	
13	0	0	0	0	278	
14	0	0	0	0	278	
15	0	0	0	0	278	
0	0	0	0	0	278	
1	0	0	0	0	278	
2	0	0	0	0	278	
3	0	0	0	0	278	
4	0	0	0	0	277	
5	0	0	0	0	276	
6	0	0	0	0	275	
7	0	0	0	0	274	
8	0	0	0	0	274	
9	0	0	0	0	274	
10	0	0	0	0	275	
11	0	0	0	0	275	
12	0	0	0	0	275	
13	0	0	0	0	274	
14	0	0	0	0	273	
15	0	0	0	0	273	
0	0	0	0	0	274	
1	0	0	0	0	275	
2	0	0	0	0	274	
3	0	0	0	0	275	
4	0	0	0	0	275	
5	0	0	0	0	275	
6	0	0	0	0	275	
7	0	0	0	0	275	
8	0	0	0	0	275	
9	0	0	0	0	276	
10	0	0	0	0	276	
11	0	0	0	0	278	
12	0	0	0	0	278	
13	0	0	0	0	278	
14	0	0	0	0	279	
15	0	0	0	0	279	
0	0	0	0	0	279	
1	0	0	0	0	280	
2	0	0	0	0	280	
3	0	0	0	0	280	
4	0	0	0	0	280	
5	0	0	0	0	280	
6	0	0	0	0	279	
7	0	0	0	0	279	
8	0	0	0	0	279	
9	0	0	0	0	279	
10	0	0	0	0	278	
11	0	0	0	0	278	
12	0	0	0	0	278	
13	0	0	0	0	278	
14	0	0	0	0	277	
15	0	0	0	0	277	
0	0	0	0	0	277	
1	0	0	0	0	276	
2	0	0	0	0	276	
3	0	0	0	0	276	
4	0	0	0	0	276	
5	0	0	0	0	276	
6	0	0	0	0	276	
7	0	0	0	0	276	
8	0	0	0	0	275	
9	0	0	0	0	275	
10	0	0	0	0	275	
11	0	0	0	0	275	
12	0	0	0	0	275	
13	0	0	0	0	275	
14	0	0	0	0	275	
15	0	0	0	0	275	
0	0	0	0	0	275	
1	0	0	0	0	275	
2	0	0	0	0	275	
3	0	0	0	0	275	
4	0	0	0	0	275	
5	0	0	0	0	275	
6	0	0	0	0	275	
7	0	0	0	0	275	
8	0	0	0	0	275	
9	0	0	0	0	274	
10	0	0	0	0	274	
11	0	0	0	0	274	
12	0	0	0	0	274	
13	0	0	0	0	274	
14	0	0	0	0	274	
15	0	0	0	0	274	
0	0	0	0	0	274	
1	0	0	0	0	274	
2	0	0	0	0	274	
3	0	0	0	0	274	
4	0	0	0	0	274	
5	0	0	0	0	274	
6	0	0	0	0	273	
7	0	0	0	0	274	
8	0	0	0	0	274	
9	0	0	0	0	274	
10	0	0	0	0	274	
11	0	0	0	0	274	
12	0	0	0	0	274	
13	0	0	0	0	274	
14	0	0	0	0	274	
15	0	0	0	0	274	
0	0	0	0	0	273	
1	0	0	0	0	273	
2	0	0	0	0	273	
3	0	0	0	0	273	
4	0	0	0	0	273	
5	0	0	0	0	273	
6	0	0	0	0	273	
7	0	0	0	0	273	
8	0	0	0	0	273	
9	0	0	0	0	273	
10	0	0	0	0	273	
11	0	0	0	0	273	
12	0	0	0	0	273	
13	0	0	0	0	273	
14	0	0	0	0	273	
15	0	0	0	0	273	
0	0	0	0	0	273	
1	0	0	0	0	273	
2	0	0	0	0	273	
3	0	0	0	0	274	
4	0	0	0	0	274	
5	0	0	0	0	274	
6	0	0	0	0	274	
7	0	0	0	0	275	
8	0	0	0	0	275	
9	0	0	0	0	275	
10	0	0	0	0	275	
11	0	0	0	0	275	
12	0	0	0	0	275	
13	0	0	0	0	275	
14	0	0	0	0	274	
15	0	0	0	0	275	
0	0	0	0	0	274	
1	0	0	0	0	274	
2	0	0	0	0	274	
3	0	0	0	0	274	
4	0	0	0	0	273	
5	0	0	0	0	273	
6	0	0	0	0	273	
7	0	0	0	0	273	
8	0	0	0	0	273	
9	0	0	0	0	273	
10	0	0	0	0	273	
11	0	0	0	0	273	
12	0	0	0	0	273	
13	0	0	0	0	273	
14	0	0	0	0	273	
15	0	0	0	0	274	
0	0	0	0	0	273	
1	0	0	0	0	274	
2	0	0	0	0	273	
3	0	0	0	0	273	
4	0	0	0	0	273	
5	0	0	0	0	274	
6	0	0	0	0	273	
7	0	0	0	0	273	
8	0	0	0	0	273	
9	0	0	0	0	273	
10	0	0	0	0	273	
11	0	0	0	0	273	
12	0	0	0	0	273	
13	0	0	0	0	273	
14	0	0	0	0	273	
15	0	0	0	0	273	
0	0	0	0	0	272	
1	0	0	0	0	273	
2	0	0	0	0	272	
3	0	0	0	0	273	
4	0	0	0	0	272	
5	0	0	0	0	272	
6	0	0	0	0	272	
7	0	0	0	0	272	
8	0	0	0	0	272	
9	0	0	0	0	272	
10	0	0	0	0	272	
11	0	0	0	0	272	
12	0	0	0	0	272	
13	0	0	0	0	273	
14	0	0	0	0	273	
15	0	0	0	0	273	
0	0	0	0	0	273	
1	0	0	0	0	273	
2	0	0	0	0	273	
3	0	0	0	0	274	
4	0	0	0	0	274	
5	0	0	0	0	274	
6	0	0	0	0	274	
7	0	0	0	0	274	
8	0	0	0	0	274	
9	0	0	0	0	274	
10	0	0	0	0	274	
11	0	0	0	0	275	
12	0	0	0	0	275	
13	0	0	0	0	276	
14	0	0	0	0	277	
15	0	0	0	0	278	
0	0	0	0	0	278	
1	0	0	0	0	279	
2	0	0	0	0	279	
3	0	0	0	0	280	
4	0	0	0	0	280	
5	0	0	0	0	280	
6	0	0	0	0	279	
7	0	0	0	0	279	
8	0	0	0	0	279	
9	0	0	0	0	279	
10	0	0	0	0	279	
11	0	0	0	0	278	
12	0	0	0	0	278	
13	0	0	0	0	278	
14	0	0	0	0	277	
15	0	0	0	0	277	
0	0	0	0	0	277	
1	0	0	0	0	277	
2	0	0	0	0	276	
3	0	0	0	0	276	
4	0	0	0	0	276	
5	0	0	0	0	276	
6	0	0	0	0	275	
7	0	0	0	0	275	
8	0	0	0	0	275	
9	0	0	0	0	275	
10	0	0	0	0	275	
11	0	0	0	0	275	
12	0	0	0	0	275	
13	0	0	0	0	275	
14	0	0	0	0	275	
15	0	0	0	0	275	
0	0	0	0	0	275	
1	0	0	0	0	275	
2	0	0	0	0	275	
3	0	0	0	0	275	
4	0	0	0	0	275	
5	0	0	0	0	275	
6	0	0	0	0	275	
7	0	0	0	0	275	
8	0	0	0	0	275	
9	0	0	0	0	275	
10	0	0	0	0	275	
11	0	0	0	0	275	
12	0	0	0	0	274	
13	0	0	0	0	275	
14	0	0	0	0	274	
15	0	0	0	0	274	
0	0	0	0	0	274	
1	0	0	0	0	274	
2	0	0	0	0	274	
3	0	0	0	0	274	
4	0	0	0	0	274	
5	0	0	0	0	274	
6	0	0	0	0	274	
7	0	0	0	0	274	
8	0	0	0	0	274	
9	0	0	0	0	275	
10	0	0	0	0	275	
11	0	0	0	0	275	
12	0	0	0	0	276	
13	0	0	0	0	276	
14	0	0	0	0	277	
15	0	0	0	0	277	
0	0	0	0	0	277	
1	0	0	0	0	278	
2	0	0	0	0	278	
3	0	0	0	0	278	
4	0	0	0	0	277	
5	0	0	0	0	278	
6	0	0	0	0	277	
7	0	0	0	0	277	
8	0	0	0	0	277	
9	0	0	0	0	276	
10	0	0	0	0	276	
11	0	0	0	0	276	
12	0	0	0	0	276	
13	0	0	0	0	276	
14	0	0	0	0	275	
15	0	0	0	0	275	
0	0	0	0	0	275	
1	0	0	0	0	275	
2	0	0	0	0	275	
3	0	0	0	0	275	
4	0	0	0	0	275	
5	0	0	0	0	275	
6	0	0	0	0	275	
7	0	0	0	0	275	
8	0	0	0	0	274	
9	0	0	0	0	274	
10	0	0	0	0	274	
11	0	0	0	0	274	
12	0	0	0	0	275	
13	0	0	0	0	275	
14	0	0	0	0	276	
15	0	0	0	0	277	
0	0	0	0	0	278	
1	0	0	0	0	279	
2	0	0	0	0	279	
3	0	0	0	0	280	
4	0	0	0	0	280	
5	0	0	0	0	281	
6	0	0	0	0	281	
7	0	0	0	0	281	
8	0	0	0	0	281	
9	0	0	0	0	282	
10	0	0	0	0	281	
11	0	0	0	0	282	
12	0	0	0	0	281	
13	0	0	0	0	281	
14	0	0	0	0	281	
15	0	0	0	0	281	
0	0	0	0	0	280	
1	0	0	0	0	280	
2	0	0	0	0	280	
3	0	0	0	0	280	
4	0	0	0	0	279	
5	0	0	0	0	279	
6	0	0	0	0	279	
7	0	0	0	0	279	
8	0	0	0	0	278	
9	0	0	0	0	278	
10	0	0	0	0	278	
11	0	0	0	0	278	
12	0	0	0	0	278	
13	0	0	0	0	278	
14	0	0	0	0	278	
15	0	0	0	0	278	
0	0	0	0	0	278	
1	0	0	0	0	278	
2	0	0	0	0	278	
3	0	0	0	0	278	
4	0	0	0	0	278	
5	0	0	0	0	278	
6	0	0	0	0	278	
7	0	0	0	0	278	
8	0	0	0	0	278	
9	0	0	0	0	278	
10	0	0	0	0	278	
11	0	0	0	0	278	
12	0	0	0	0	279	
13	0	0	0	0	280	
14	0	0	0	0	280	
15	0	0	0	0	282	
0	0	0	0	0	283	
1	0	0	0	0	284	
2	0	0	0	0	285	
3	0	0	0	0	286	
4	0	0	0	0	286	
5	0	0	0	0	287	
6	0	0	0	0	287	
7	0	0	0	0	287	
8	0	0	0	0	287	
9	0	0	0	0	287	
10	0	0	0	0	287	
11	0	0	0	0	287	
12	0	0	0	0	286	
13	0	0	0	0	286	
14	0	0	0	0	285	
15	0	0	0	0	285	
0	0	0	0	0	284	
1	0	0	0	0	284	
2	0	0	0	0	284	
3	0	0	0	0	283	
4	0	0	0	0	283	
5	0	0	0	0	283	
6	0	0	0	0	282	
7	0	0	0	0	282	
8	0	0	0	0	281	
9	0	0	0	0	281	
10	0	0	0	0	281	
11	0	0	0	0	281	
12	0	0	0	0	281	
13	0	0	0	0	281	
14	0	0	0	0	280	
15	0	0	0	0	280	
0	0	0	0	0	280	
1	0	0	0	0	280	
2	0	0	0	0	280	
3	0	0	0	0	280	
4	0	0	0	0	280	
5	0	0	0	0	280	
6	0	0	0	0	280	
7	0	0	0	0	280	
8	0	0	0	0	280	
9	0	0	0	0	280	
10	0	0	0	0	280	
11	0	0	0	0	280	
12	0	0	0	0	279	
13	0	0	0	0	280	
14	0	0	0	0	279	
15	0	0	0	0	279	
0	0	0	0	0	279	
1	0	0	0	0	279	
2	0	0	0	0	279	
3	0	0	0	0	279	
4	0	0	0	0	279	
5	0	0	0	0	279	
6	0	0	0	0	279	
7	0	0	0	0	279	
8	0	0	0	0	279	
9	0	0	0	0	279	
10	0	0	0	0	279	
11	0	0	0	0	279	
12	0	0	0	0	279	
13	0	0	0	0	279	
14	0	0	0	0	279	
15	0	0	0	0	279	
0	0	0	0	0	279	
1	0	0	0	0	280	
2	0	0	0	0	280	
3	0	0	0	0	280	
4	0	0	0	0	280	
5	0	0	0	0	281	
6	0	0	0	0	281	
7	0	0	0	0	281	
8	0	0	0	0	281	
9	0	0	0	0	282	
10	0	0	0	0	282	
11	0	0	0	0	282	
12	0	0	0	0	282	
13	0	0	0	0	282	
14	0	0	0	0	282	
15	0	0	0	0	282	
0	0	0	0	0	282	
1	0	0	0	0	283	
2	0	0	0	0	283	
3	0	0	0	0	284	
4	0	0	0	0	284	
5	0	0	0	0	284	
6	0	0	0	0	285	
7	0	0	0	0	285	
8	0	0	0	0	285	
9	0	0	0	0	286	
10	0	0	0	0	286	
11	0	0	0	0	286	
12	0	0	0	0	285	
13	0	0	0	0	286	
14	0	0	0	0	285	
15	0	0	0	0	285	
0	0	0	0	0	284	
1	0	0	0	0	284	
2	0	0	0	0	284	
3	0	0	0	0	284	
4	0	0	0	0	283	
5	0	0	0	0	283	
6	0	0	0	0	282	
7	0	0	0	0	282	
8	0	0	0	0	282	
9	0	0	0	0	282	
10	0	0	0	0	282	
11	0	0	0	0	282	
12	0	0	0	0	282	
13	0	0	0	0	282	
14	0	0	0	0	283	
15	0	0	0	0	284	
0	0	0	0	0	284	
1	0	0	0	0	285	
2	0	0	0	0	285	
3	0	0	0	0	286	
4	0	0	0	0	286	
5	0	0	0	0	287	
6	0	0	0	0	287	
7	0	0	0	0	287	
8	0	0	0	0	287	
9	0	0	0	0	287	
10	0	0	0	0	287	
11	0	0	0	0	287	
12	0	0	0	0	286	
13	0	0	0	0	286	
14	0	0	0	0	286	
15	0	0	0	0	286	
0	0	0	0	0	285	
1	0	0	0	0	285	
2	0	0	0	0	284	
3	0	0	0	0	284	
4	0	0	0	0	284	
5	0	0	0	0	284	
6	0	0	0	0	283	
7	0	0	0	0	283	
8	0	0	0	0	283	
9	0	0	0	0	283	
10	0	0	0	0	282	
11	0	0	0	0	283	
12	0	0	0	0	282	
13	0	0	0	0	282	
14	0	0	0	0	282	
15	0	0	0	0	282	
0	0	0	0	0	282	
1	0	0	0	0	282	
2	0	0	0	0	282	
3	0	0	0	0	283	
4	0	0	0	0	283	
5	0	0	0	0	285	
6	0	0	0	0	286	
7	0	0	0	0	288	
8	0	0	0	0	290	
9	0	0	0	0	292	
10	0	0	0	0	294	
11	0	0	0	0	296	
12	0	0	0	0	297	
13	0	0	0	0	298	
14	0	0	0	0	299	
15	0	0	0	0	299	
0	0	0	0	0	299	
1	0	0	0	0	299	
2	0	0	0	0	299	
3	0	0	0	0	299	
4	0	0	0	0	298	
5	0	0	0	0	297	
6	0	0	0	0	297	
7	0	0	0	0	296	
8	0	0	0	0	295	
9	0	0	0	0	295	
10	0	0	0	0	295	
11	0	0	0	0	294	
12	0	0	0	0	294	
13	0	0	0	0	293	
14	0	0	0	0	292	
15	0	0	0	0	292	
0	0	0	0	0	292	
1	0	0	0	0	292	
2	0	0	0	0	291	
3	0	0	0	0	291	
4	0	0	0	0	291	
5	0	0	0	0	291	
6	0	0	0	0	291	
7	0	0	0	0	291	
8	0	0	0	0	290	
9	0	0	0	0	291	
10	0	0	0	0	291	
11	0	0	0	0	291	
12	0	0	0	0	291	
13	0	0	0	0	291	
14	0	0	0	0	292	
15	0	0	0	0	292	
0	0	0	0	0	291	
1	0	0	0	0	291	
2	0	0	0	0	291	
3	0	0	0	0	291	
4	0	0	0	0	291	
5	0	0	0	0	291	
6	0	0	0	0	291	
7	0	0	0	0	292	
8	0	0	0	0	293	
9	0	0	0	0	294	
10	0	0	0	0	296	
11	0	0	0	0	299	
12	0	0	0	0	300	
13	0	0	0	0	302	
14	0	0	0	0	304	
15	0	0	0	0	305	
0	0	0	0	0	306	
1	0	0	0	0	307	
2	0	0	0	0	306	
3	0	0	0	0	307	
4	0	0	0	0	307	
5	0	0	0	0	307	
6	0	0	0	0	306	
7	0	0	0	0	305	
8	0	0	0	0	305	
9	0	0	0	0	305	
10	0	0	0	0	305	
11	0	0	0	0	305	
12	0	0	0	0	305	
13	0	0	0	0	305	
14	0	0	0	0	305	
15	0	0	0	0	305	
0	0	0	0	0	304	
1	0	0	0	0	304	
2	0	0	0	0	304	
3	0	0	0	0	304	
4	0	0	0	0	303	
5	0	0	0	0	303	
6	0	0	0	0	302	
7	0	0	0	0	302	
8	0	0	0	0	301	
9	0	0	0	0	301	
10	0	0	0	0	300	
11	0	0	0	0	300	
12	0	0	0	0	300	
13	0	0	0	0	300	
14	0	0	0	0	299	
15	0	0	0	0	299	
0	0	0	0	0	298	
1	0	0	0	0	298	
2	0	0	0	0	298	
3	0	0	0	0	298	
4	0	0	0	0	297	
5	0	0	0	0	297	
6	0	0	0	0	297	
7	0	0	0	0	297	
8	0	0	0	0	296	
9	0	0	0	0	296	
10	0	0	0	0	296	
11	0	0	0	0	296	
12	0	0	0	0	296	
13	0	0	0	0	296	
14	0	0	0	0	296	
15	0	0	0	0	296	
0	0	0	0	0	296	
1	0	0	0	0	296	
2	0	0	0	0	296	
3	0	0	0	0	296	
4	0	0	0	0	296	
5	0	0	0	0	296	
6	0	0	0	0	296	
7	0	0	0	0	296	
8	0	0	0	0	296	
9	0	0	0	0	296	
10	0	0	0	0	296	
11	0	0	0	0	296	
12	0	0	0	0	295	
13	0	0	0	0	295	
14	0	0	0	0	295	
15	0	0	0	0	295	
0	0	0	0	0	295	
1	0	0	0	0	295	
2	0	0	0	0	295	
3	0	0	0	0	295	
4	0	0	0	0	295	
5	0	0	0	0	295	
6	0	0	0	0	295	
7	0	0	0	0	295	
8	0	0	0	0	295	
9	0	0	0	0	295	
10	0	0	0	0	295	
11	0	0	0	0	294	
12	0	0	0	0	294	
13	0	0	0	0	294	
14	0	0	0	0	294	
15	0	0	0	0	294	
0	0	0	0	0	294	
1	0	0	0	0	294	
2	0	0	0	0	294	
3	0	0	0	0	294	
4	0	0	0	0	294	
5	0	0	0	0	294	
6	0	0	0	0	294	
7	0	0	0	0	294	
8	0	0	0	0	294	
9	0	0	0	0	294	
10	0	0	0	0	293	
11	0	0	0	0	294	
12	0	0	0	0	293	
13	0	0	0	0	294	
14	0	0	0	0	293	
15	0	0	0	0	293	
0	0	0	0	0	293	
1	0	0	0	0	293	
2	0	0	0	0	293	
3	0	0	0	0	293	
4	0	0	0	0	293	
5	0	0	0	0	293	
6	0	0	0	0	293	
7	0	0	0	0	293	
8	0	0	0	0	292	
9	0	0	0	0	293	
10	0	0	0	0	292	
11	0	0	0	0	293	
12	0	0	0	0	292	
13	0	0	0	0	292	
14	0	0	0	0	292	
15	0	0	0	0	292	
0	0	0	0	0	292	
1	0	0	0	0	292	
2	0	0	0	0	292	
3	0	0	0	0	292	
4	0	0	0	0	292	
5	0	0	0	0	292	
6	0	0	0	0	292	
7	0	0	0	0	292	
8	0	0	0	0	292	
9	0	0	0	0	292	
10	0	0	0	0	292	
11	0	0	0	0	292	
12	0	0	0	0	292	
13	0	0	0	0	292	
14	0	0	0	0	292	
15	0	0	0	0	292	
0	0	0	0	0	292	
1	0	0	0	0	292	
2	0	0	0	0	292	
3	0	0	0	0	292	
4	0	0	0	0	292	
5	0	0	0	0	292	
6	0	0	0	0	292	
7	0	0	0	0	292	
8	0	0	0	0	291	
9	0	0	0	0	292	
10	0	0	0	0	291	
11	0	0	0	0	291	
12	0	0	0	0	291	
13	0	0	0	0	291	
14	0	0	0	0	291	
15	0	0	0	0	291	
0	0	0	0	0	291	
1	0	0	0	0	291	
2	0	0	0	0	291	
3	0	0	0	0	291	
4	0	0	0	0	291	
5	0	0	0	0	290	
6	0	0	0	0	291	
7	0	0	0	0	291	
8	0	0	0	0	290	
9	0	0	0	0	291	
10	0	0	0	0	290	
11	0	0	0	0	291	
12	0	0	0	0	291	
13	0	0	0	0	292	
14	0	0	0	0	293	
15	0	0	0	0	295	
0	0	0	0	0	297	
1	0	0	0	0	299	
2	0	0	0	0	300	
3	0	0	0	0	302	
4	0	0	0	0	304	
5	0	0	0	0	305	
6	0	0	0	0	305	
7	0	0	0	0	306	
8	0	0	0	0	307	
9	0	0	0	0	307	
10	0	0	0	0	308	
11	0	0	0	0	309	
12	0	0	0	0	311	
13	0	0	0	0	312	
14	0	0	0	0	314	
15	0	0	0	0	316	
0	0	0	0	0	317	
1	0	0	0	0	318	
2	0	0	0	0	319	
3	0	0	0	0	319	
4	0	0	0	0	319	
5	0	0	0	0	319	
6	0	0	0	0	319	
7	0	0	0	0	319	
8	0	0	0	0	319	
9	0	0	0	0	320	
10	0	0	0	0	321	
11	0	0	0	0	321	
12	0	0	0	0	321	
13	0	0	0	0	322	
14	0	0	0	0	323	
15	0	0	0	0	324	
0	0	0	0	0	325	
1	0	0	0	0	327	
2	0	0	0	0	328	
3	0	0	0	0	330	
4	0	0	0	0	332	
5	0	0	0	0	335	
6	0	0	0	0	335	
7	0	0	0	0	336	
8	0	0	0	0	337	
9	0	0	0	0	337	
10	0	0	0	0	337	
11	0	0	0	0	338	
12	0	0	0	0	337	
13	0	0	0	0	336	
14	0	0	0	0	335	
15	0	0	0	0	334	
0	0	0	0	0	333	
1	0	0	0	0	332	
2	0	0	0	0	330	
3	0	0	0	0	329	
4	0	0	0	0	328	
5	0	0	0	0	327	
6	0	0	0	0	326	
7	0	0	0	0	326	
8	0	0	0	0	325	
9	0	0	0	0	324	
10	0	0	0	0	323	
11	0	0	0	0	323	
12	0	0	0	0	323	
13	0	0	0	0	322	
14	0	0	0	0	322	
15	0	0	0	0	321	
0	0	0	0	0	321	
1	0	0	0	0	321	
2	0	0	0	0	320	
3	0	0	0	0	320	
4	0	0	0	0	319	
5	0	0	0	0	321	
6	0	0	0	0	321	
7	0	0	0	0	321	
8	0	0	0	0	320	
9	0	0	0	0	320	
10	0	0	0	0	319	
11	0	0	0	0	319	
12	0	0	0	0	319	
13	0	0	0	0	320	
14	0	0	0	0	320	
15	0	0	0	0	320	
0	0	0	0	0	320	
1	0	0	0	0	320	
2	0	0	0	0	319	
3	0	0	0	0	319	
4	0	0	0	0	318	
5	0	0	0	0	319	
6	0	0	0	0	320	
7	0	0	0	0	321	
8	0	0	0	0	319	
9	0	0	0	0	318	
10	0	0	0	0	318	
11	0	0	0	0	317	
12	0	0	0	0	316	
13	0	0	0	0	316	
14	0	0	0	0	316	
15	0	0	0	0	316	
0	0	0	0	0	315	
1	0	0	0	0	315	
2	0	0	0	0	315	
3	0	0	0	0	315	
4	0	0	0	0	314	
5	0	0	0	0	314	
6	0	0	0	0	313	
7	0	0	0	0	313	
8	0	0	0	0	313	
9	0	0	0	0	313	
10	0	0	0	0	312	
11	0	0	0	0	312	
12	0	0	0	0	312	
13	0	0	0	0	312	
14	0	0	0	0	312	
15	0	0	0	0	312	
0	0	0	0	0	312	
1	0	0	0	0	312	
2	0	0	0	0	312	
3	0	0	0	0	313	
4	0	0	0	0	315	
5	0	0	0	0	316	
6	0	0	0	0	318	
7	0	0	0	0	319	
8	0	0	0	0	321	
9	0	0	0	0	323	
10	0	0	0	0	324	
11	0	0	0	0	325	
12	0	0	0	0	326	
13	0	0	0	0	327	
14	0	0	0	0	327	
15	0	0	0	0	327	
0	0	0	0	0	326	
1	0	0	0	0	325	
2	0	0	0	0	325	
3	0	0	0	0	324	
4	0	0	0	0	323	
5	0	0	0	0	323	
6	0	0	0	0	322	
7	0	0	0	0	321	
8	0	0	0	0	321	
9	0	0	0	0	320	
10	0	0	0	0	320	
11	0	0	0	0	319	
12	0	0	0	0	319	
13	0	0	0	0	319	
14	0	0	0	0	318	
15	0	0	0	0	318	
0	0	0	0	0	318	
1	0	0	0	0	317	
2	0	0	0	0	317	
3	0	0	0	0	317	
4	0	0	0	0	316	
5	0	0	0	0	316	
6	0	0	0	0	316	
7	0	0	0	0	316	
8	0	0	0	0	315	
9	0	0	0	0	315	
10	0	0	0	0	315	
11	0	0	0	0	315	
12	0	0	0	0	315	
13	0	0	0	0	315	
14	0	0	0	0	314	
15	0	0	0	0	314	
0	0	0	0	0	314	
1	0	0	0	0	314	
2	0	0	0	0	313	
3	0	0	0	0	314	
4	0	0	0	0	313	
5	0	0	0	0	315	
6	0	0	0	0	315	
7	0	0	0	0	316	
8	0	0	0	0	317	
9	0	0	0	0	318	
10	0	0	0	0	319	
11	0	0	0	0	319	
12	0	0	0	0	320	
13	0	0	0	0	321	
14	0	0	0	0	321	
15	0	0	0	0	321	
0	0	0	0	0	321	
1	0	0	0	0	321	
2	0	0	0	0	321	
3	0	0	0	0	320	
4	0	0	0	0	320	
5	0	0	0	0	320	
6	0	0	0	0	319	
7	0	0	0	0	319	
8	0	0	0	0	319	
9	0	0	0	0	319	
10	0	0	0	0	319	
11	0	0	0	0	320	
12	0	0	0	0	320	
13	0	0	0	0	321	
14	0	0	0	0	321	
15	0	0	0	0	321	
0	0	0	0	0	321	
1	0	0	0	0	322	
2	0	0	0	0	322	
3	0	0	0	0	322	
4	0	0	0	0	322	
5	0	0	0	0	323	
6	0	0	0	0	323	
7	0	0	0	0	323	
8	0	0	0	0	323	
9	0	0	0	0	324	
10	0	0	0	0	325	
11	0	0	0	0	326	
12	0	0	0	0	327	
13	0	0	0	0	329	
14	0	0	0	0	331	
15	0	0	0	0	332	
0	0	0	0	0	333	
1	0	0	0	0	334	
2	0	0	0	0	335	
3	0	0	0	0	336	
4	0	0	0	0	337	
5	0	0	0	0	337	
6	0	0	0	0	337	
7	0	0	0	0	338	
8	0	0	0	0	338	
9	0	0	0	0	337	
10	0	0	0	0	337	
11	0	0	0	0	337	
12	0	0	0	0	337	
13	0	0	0	0	336	
14	0	0	0	0	335	
15	0	0	0	0	335	
0	0	0	0	0	334	
1	0	0	0	0	334	
2	0	0	0	0	333	
3	0	0	0	0	333	
4	0	0	0	0	332	
5	0	0	0	0	332	
6	0	0	0	0	331	
7	0	0	0	0	331	
8	0	0	0	0	331	
9	0	0	0	0	330	
10	0	0	0	0	329	
11	0	0	0	0	329	
12	0	0	0	0	328	
13	0	0	0	0	328	
14	0	0	0	0	328	
15	0	0	0	0	328	
0	0	0	0	0	328	
1	0	0	0	0	328	
2	0	0	0	0	329	
3	0	0	0	0	330	
4	0	0	0	0	330	
5	0	0	0	0	331	
6	0	0	0	0	331	
7	0	0	0	0	331	
8	0	0	0	0	331	
9	0	0	0	0	331	
10	0	0	0	0	330	
11	0	0	0	0	331	
12	0	0	0	0	330	
13	0	0	0	0	329	
14	0	0	0	0	329	
15	0	0	0	0	329	
0	0	0	0	0	328	
1	0	0	0	0	327	
2	0	0	0	0	327	
3	0	0	0	0	327	
4	0	0	0	0	327	
5	0	0	0	0	326	
6	0	0	0	0	326	
7	0	0	0	0	326	
8	0	0	0	0	325	
9	0	0	0	0	325	
10	0	0	0	0	325	
11	0	0	0	0	325	
12	0	0	0	0	325	
13	0	0	0	0	325	
14	0	0	0	0	326	
15	0	0	0	0	326	
0	0	0	0	0	327	
1	0	0	0	0	327	
2	0	0	0	0	328	
3	0	0	0	0	329	
4	0	0	0	0	329	
5	0	0	0	0	329	
6	0	0	0	0	327	
7	0	0	0	0	327	
8	0	0	0	0	328	
9	0	0	0	0	327	
10	0	0	0	0	326	
11	0	0	0	0	324	
12	0	0	0	0	323	
13	0	0	0	0	324	
14	0	0	0	0	322	
15	0	0	0	0	321	
0	0	0	0	0	321	
1	0	0	0	0	320	
2	0	0	0	0	320	
3	0	0	0	0	319	
4	0	0	0	0	319	
5	0	0	0	0	319	
6	0	0	0	0	318	
7	0	0	0	0	318	
8	0	0	0	0	318	
9	0	0	0	0	318	
10	0	0	0	0	317	
11	0	0	0	0	317	
12	0	0	0	0	317	
13	0	0	0	0	318	
14	0	0	0	0	319	
15	0	0	0	0	319	
0	0	0	0	0	318	
1	0	0	0	0	316	
2	0	0	0	0	313	
3	0	0	0	0	313	
4	0	0	0	0	314	
5	0	0	0	0	315	
6	0	0	0	0	315	
7	0	0	0	0	316	
8	0	0	0	0	316	
9	0	0	0	0	316	
10	0	0	0	0	316	
11	0	0	0	0	316	
12	0	0	0	0	316	
13	0	0	0	0	316	
14	0	0	0	0	315	
15	0	0	0	0	315	
0	0	0	0	0	315	
1	0	0	0	0	315	
2	0	0	0	0	315	
3	0	0	0	0	315	
4	0	0	0	0	314	
5	0	0	0	0	314	
6	0	0	0	0	313	
7	0	0	0	0	313	
8	0	0	0	0	313	
9	0	0	0	0	313	
10	0	0	0	0	312	
11	0	0	0	0	312	
12	0	0	0	0	312	
13	0	0	0	0	312	
14	0	0	0	0	311	
15	0	0	0	0	311	
0	0	0	0	0	311	
1	0	0	0	0	312	
2	0	0	0	0	312	
3	0	0	0	0	312	
4	0	0	0	0	312	
5	0	0	0	0	313	
6	0	0	0	0	313	
7	0	0	0	0	313	
8	0	0	0	0	313	
9	0	0	0	0	313	
10	0	0	0	0	313	
11	0	0	0	0	313	
12	0	0	0	0	312	
13	0	0	0	0	312	
14	0	0	0	0	312	
15	0	0	0	0	312	
0	0	0	0	0	311	
1	0	0	0	0	311	
2	0	0	0	0	310	
3	0	0	0	0	310	
4	0	0	0	0	310	
5	0	0	0	0	310	
6	0	0	0	0	309	
7	0	0	0	0	309	
8	0	0	0	0	308	
9	0	0	0	0	308	
10	0	0	0	0	308	
11	0	0	0	0	308	
12	0	0	0	0	307	
13	0	0	0	0	307	
14	0	0	0	0	307	
15	0	0	0	0	307	
0	0	0	0	0	306	
1	0	0	0	0	306	
2	0	0	0	0	305	
3	0	0	0	0	305	
4	0	0	0	0	305	
5	0	0	0	0	305	
6	0	0	0	0	305	
7	0	0	0	0	304	
8	0	0	0	0	304	
9	0	0	0	0	304	
10	0	0	0	0	304	
11	0	0	0	0	304	
12	0	0	0	0	303	
13	0	0	0	0	303	
14	0	0	0	0	303	
15	0	0	0	0	303	
0	0	0	0	0	303	
1	0	0	0	0	303	
2	0	0	0	0	302	
3	0	0	0	0	302	
4	0	0	0	0	302	
5	0	0	0	0	302	
6	0	0	0	0	302	
7	0	0	0	0	301	
8	0	0	0	0	301	
9	0	0	0	0	301	
10	0	0	0	0	301	
11	0	0	0	0	301	
12	0	0	0	0	300	
13	0	0	0	0	300	
14	0	0	0	0	300	
15	0	0	0	0	300	
0	0	0	0	0	300	
1	0	0	0	0	300	
2	0	0	0	0	300	
3	0	0	0	0	300	
4	0	0	0	0	299	
5	0	0	0	0	299	
6	0	0	0	0	299	
7	0	0	0	0	299	
8	0	0	0	0	298	
9	0	0	0	0	298	
10	0	0	0	0	298	
11	0	0	0	0	298	
12	0	0	0	0	297	
13	0	0	0	0	297	
14	0	0	0	0	297	
15	0	0	0	0	297	
0	0	0	0	0	297	
1	0	0	0	0	297	
2	0	0	0	0	296	
3	0	0	0	0	296	
4	0	0	0	0	296	
5	0	0	0	0	296	
6	0	0	0	0	296	
7	0	0	0	0	296	
8	0	0	0	0	296	
9	0	0	0	0	296	
10	0	0	0	0	297	
11	0	0	0	0	297	
12	0	0	0	0	297	
13	0	0	0	0	298	
14	0	0	0	0	298	
15	0	0	0	0	299	
0	0	0	0	0	299	
1	0	0	0	0	299	
2	0	0	0	0	299	
3	0	0	0	0	299	
4	0	0	0	0	299	
5	0	0	0	0	299	
6	0	0	0	0	299	
7	0	0	0	0	299	
8	0	0	0	0	298	
9	0	0	0	0	298	
10	0	0	0	0	297	
11	0	0	0	0	297	
12	0	0	0	0	297	
13	0	0	0	0	297	
14	0	0	0	0	296	
15	0	0	0	0	296	
0	0	0	0	0	296	
1	0	0	0	0	296	
2	0	0	0	0	295	
3	0	0	0	0	295	
4	0	0	0	0	295	
5	0	0	0	0	295	
6	0	0	0	0	295	
7	0	0	0	0	295	
8	0	0	0	0	295	
9	0	0	0	0	295	
10	0	0	0	0	294	
11	0	0	0	0	294	
12	0	0	0	0	294	
13	0	0	0	0	294	
14	0	0	0	0	294	
15	0	0	0	0	294	
0	0	0	0	0	293	
1	0	0	0	0	293	
2	0	0	0	0	293	
3	0	0	0	0	293	
4	0	0	0	0	292	
5	0	0	0	0	292	
6	0	0	0	0	292	
7	0	0	0	0	293	
8	0	0	0	0	293	
9	0	0	0	0	294	
10	0	0	0	0	294	
11	0	0	0	0	294	
12	0	0	0	0	294	
13	0	0	0	0	293	
14	0	0	0	0	293	
15	0	0	0	0	293	
0	0	0	0	0	293	
1	0	0	0	0	294	
2	0	0	0	0	295	
3	0	0	0	0	297	
4	0	0	0	0	299	
5	0	0	0	0	300	
6	0	0	0	0	300	
7	0	0	0	0	300	
8	0	0	0	0	300	
9	0	0	0	0	301	
10	0	0	0	0	302	
11	0	0	0	0	302	
12	0	0	0	0	302	
13	0	0	0	0	302	
14	0	0	0	0	302	
15	0	0	0	0	302	
0	0	0	0	0	301	
1	0	0	0	0	301	
2	0	0	0	0	300	
3	0	0	0	0	300	
4	0	0	0	0	300	
5	0	0	0	0	299	
6	0	0	0	0	299	
7	0	0	0	0	299	
8	0	0	0	0	298	
9	0	0	0	0	298	
10	0	0	0	0	297	
11	0	0	0	0	297	
12	0	0	0	0	296	
13	0	0	0	0	296	
14	0	0	0	0	296	
15	0	0	0	0	296	
0	0	0	0	0	295	
1	0	0	0	0	295	
2	0	0	0	0	295	
3	0	0	0	0	295	
4	0	0	0	0	295	
5	0	0	0	0	295	
6	0	0	0	0	294	
7	0	0	0	0	294	
8	0	0	0	0	294	
9	0	0	0	0	294	
10	0	0	0	0	294	
11	0	0	0	0	294	
12	0	0	0	0	293	
13	0	0	0	0	293	
14	0	0	0	0	293	
15	0	0	0	0	293	
0	0	0	0	0	292	
1	0	0	0	0	293	
2	0	0	0	0	292	
3	0	0	0	0	292	
4	0	0	0	0	292	
5	0	0	0	0	292	
6	0	0	0	0	292	
7	0	0	0	0	292	
8	0	0	0	0	292	
9	0	0	0	0	292	
10	0	0	0	0	291	
11	0	0	0	0	291	
12	0	0	0	0	291	
13	0	0	0	0	291	
14	0	0	0	0	291	
15	0	0	0	0	291	
0	0	0	0	0	291	
1	0	0	0	0	291	
2	0	0	0	0	291	
3	0	0	0	0	291	
4	0	0	0	0	291	
5	0	0	0	0	292	
6	0	0	0	0	292	
7	0	0	0	0	292	
8	0	0	0	0	292	
9	0	0	0	0	293	
10	0	0	0	0	292	
11	0	0	0	0	292	
12	0	0	0	0	292	
13	0	0	0	0	292	
14	0	0	0	0	292	
15	0	0	0	0	292	
0	0	0	0	0	292	
1	0	0	0	0	292	
2	0	0	0	0	292	
3	0	0	0	0	292	
4	0	0	0	0	292	
5	0	0	0	0	292	
6	0	0	0	0	291	
7	0	0	0	0	292	
8	0	0	0	0	291	
9	0	0	0	0	291	
10	0	0	0	0	291	
11	0	0	0	0	291	
12	0	0	0	0	291	
13	0	0	0	0	290	
14	0	0	0	0	290	
15	0	0	0	0	289	
0	0	0	0	0	288	
1	0	0	0	0	288	
2	0	0	0	0	288	
3	0	0	0	0	288	
4	0	0	0	0	288	
5	0	0	0	0	288	
6	0	0	0	0	288	
7	0	0	0	0	288	
8	0	0	0	0	288	
9	0	0	0	0	288	
10	0	0	0	0	288	
11	0	0	0	0	289	
12	0	0	0	0	289	
13	0	0	0	0	289	
14	0	0	0	0	289	
15	0	0	0	0	291	
0	0	0	0	0	292	
1	0	0	0	0	293	
2	0	0	0	0	295	
3	0	0	0	0	296	
4	0	0	0	0	297	
5	0	0	0	0	300	
6	0	0	0	0	301	
7	0	0	0	0	303	
8	0	0	0	0	304	
9	0	0	0	0	305	
10	0	0	0	0	306	
11	0	0	0	0	307	
12	0	0	0	0	307	
13	0	0	0	0	307	
14	0	0	0	0	308	
15	0	0	0	0	308	
0	0	0	0	0	307	
1	0	0	0	0	308	
2	0	0	0	0	307	
3	0	0	0	0	307	
4	0	0	0	0	307	
5	0	0	0	0	307	
6	0	0	0	0	308	
7	0	0	0	0	309	
8	0	0	0	0	310	
9	0	0	0	0	310	
10	0	0	0	0	311	
11	0	0	0	0	312	
12	0	0	0	0	313	
13	0	0	0	0	315	
14	0	0	0	0	316	
15	0	0	0	0	319	
0	0	0	0	0	321	
1	0	0	0	0	323	
2	0	0	0	0	325	
3	0	0	0	0	327	
4	0	0	0	0	329	
5	0	0	0	0	331	
6	0	0	0	0	332	
7	0	0	0	0	334	
8	0	0	0	0	334	
9	0	0	0	0	335	
10	0	0	0	0	335	
11	0	0	0	0	335	
12	0	0	0	0	335	
13	0	0	0	0	335	
14	0	0	0	0	336	
15	0	0	0	0	337	
0	0	0	0	0	338	
1	0	0	0	0	339	
2	0	0	0	0	340	
3	0	0	0	0	341	
4	0	0	0	0	342	
5	0	0	0	0	342	
6	0	0	0	0	342	
7	0	0	0	0	342	
8	0	0	0	0	342	
9	0	0	0	0	342	
10	0	0	0	0	341	
11	0	0	0	0	340	
12	0	0	0	0	339	
13	0	0	0	0	338	
14	0	0	0	0	337	
15	0	0	0	0	336	
0	0	0	0	0	335	
1	0	0	0	0	335	
2	0	0	0	0	334	
3	0	0	0	0	333	
4	0	0	0	0	332	
5	0	0	0	0	332	
6	0	0	0	0	331	
7	0	0	0	0	331	
8	0	0	0	0	330	
9	0	0	0	0	331	
10	0	0	0	0	330	
11	0	0	0	0	330	
12	0	0	0	0	330	
13	0	0	0	0	330	
14	0	0	0	0	330	
15	0	0	0	0	330	
0	0	0	0	0	329	
1	0	0	0	0	330	
2	0	0	0	0	330	
3	0	0	0	0	331	
4	0	0	0	0	331	
5	0	0	0	0	332	
6	0	0	0	0	332	
7	0	0	0	0	333	
8	0	0	0	0	333	
9	0	0	0	0	334	
10	0	0	0	0	334	
11	0	0	0	0	334	
12	0	0	0	0	335	
13	0	0	0	0	335	
14	0	0	0	0	336	
15	0	0	0	0	337	
0	0	0	0	0	338	
1	0	0	0	0	339	
2	0	0	0	0	339	
3	0	0	0	0	340	
4	0	0	0	0	340	
5	0	0	0	0	340	
6	0	0	0	0	340	
7	0	0	0	0	339	
8	0	0	0	0	339	
9	0	0	0	0	338	
10	0	0	0	0	337	
11	0	0	0	0	336	
12	0	0	0	0	336	
13	0	0	0	0	335	
14	0	0	0	0	334	
15	0	0	0	0	334	
0	0	0	0	0	333	
1	0	0	0	0	333	
2	0	0	0	0	332	
3	0	0	0	0	332	
4	0	0	0	0	331	
5	0	0	0	0	331	
6	0	0	0	0	330	
7	0	0	0	0	330	
8	0	0	0	0	329	
9	0	0	0	0	329	
10	0	0	0	0	329	
11	0	0	0	0	329	
12	0	0	0	0	328	
13	0	0	0	0	328	
14	0	0	0	0	327	
15	0	0	0	0	327	
0	0	0	0	0	327	
1	0	0	0	0	326	
2	0	0	0	0	326	
3	0	0	0	0	326	
4	0	0	0	0	326	
5	0	0	0	0	326	
6	0	0	0	0	326	
7	0	0	0	0	327	
8	0	0	0	0	327	
9	0	0	0	0	328	
10	0	0	0	0	330	
11	0	0	0	0	331	
12	0	0	0	0	332	
13	0	0	0	0	333	
14	0	0	0	0	334	
15	0	0	0	0	334	
0	0	0	0	0	334	
1	0	0	0	0	335	
2	0	0	0	0	334	
3	0	0	0	0	334	
4	0	0	0	0	334	
5	0	0	0	0	333	
6	0	0	0	0	332	
7	0	0	0	0	332	
8	0	0	0	0	331	
9	0	0	0	0	330	
10	0	0	0	0	329	
11	0	0	0	0	329	
12	0	0	0	0	328	
13	0	0	0	0	328	
14	0	0	0	0	327	
15	0	0	0	0	327	
0	0	0	0	0	327	
1	0	0	0	0	326	
2	0	0	0	0	326	
3	0	0	0	0	325	
4	0	0	0	0	325	
5	0	0	0	0	325	
6	0	0	0	0	324	
7	0	0	0	0	325	
8	0	0	0	0	325	
9	0	0	0	0	325	
10	0	0	0	0	325	
11	0	0	0	0	325	
12	0	0	0	0	325	
13	0	0	0	0	325	
14	0	0	0	0	325	
15	0	0	0	0	325	
0	0	0	0	0	324	
1	0	0	0	0	324	
2	0	0	0	0	324	
3	0	0	0	0	324	
4	0	0	0	0	323	
5	0	0	0	0	323	
6	0	0	0	0	323	
7	0	0	0	0	323	
8	0	0	0	0	322	
9	0	0	0	0	322	
10	0	0	0	0	322	
11	0	0	0	0	321	
12	0	0	0	0	321	
13	0	0	0	0	321	
14	0	0	0	0	321	
15	0	0	0	0	321	
0	0	0	0	0	320	
1	0	0	0	0	320	
2	0	0	0	0	320	
3	0	0	0	0	320	
4	0	0	0	0	319	
5	0	0	0	0	319	
6	0	0	0	0	319	
7	0	0	0	0	319	
8	0	0	0	0	319	
9	0	0	0	0	319	
10	0	0	0	0	319	
11	0	0	0	0	319	
12	0	0	0	0	318	
13	0	0	0	0	318	
14	0	0	0	0	318	
15	0	0	0	0	318	
0	0	0	0	0	318	
1	0	0	0	0	318	
2	0	0	0	0	317	
3	0	0	0	0	317	
4	0	0	0	0	317	
5	0	0	0	0	317	
6	0	0	0	0	316	
7	0	0	0	0	316	
8	0	0	0	0	316	
9	0	0	0	0	316	
10	0	0	0	0	316	
11	0	0	0	0	316	
12	0	0	0	0	315	
13	0	0	0	0	315	
14	0	0	0	0	315	
15	0	0	0	0	315	
0	0	0	0	0	315	
1	0	0	0	0	315	
2	0	0	0	0	315	
3	0	0	0	0	315	
4	0	0	0	0	315	
5	0	0	0	0	315	
6	0	0	0	0	314	
7	0	0	0	0	314	
8	0	0	0	0	314	
9	0	0	0	0	314	
10	0	0	0	0	313	
11	0	0	0	0	313	
12	0	0	0	0	313	
13	0	0	0	0	313	
14	0	0	0	0	313	
15	0	0	0	0	313	
0	0	0	0	0	312	
1	0	0	0	0	313	
2	0	0	0	0	312	
3	0	0	0	0	312	
4	0	0	0	0	312	
5	0	0	0	0	312	
6	0	0	0	0	312	
7	0	0	0	0	312	
8	0	0	0	0	312	
9	0	0	0	0	313	
10	0	0	0	0	313	
11	0	0	0	0	314	
12	0	0	0	0	314	
13	0	0	0	0	314	
14	0	0	0	0	314	
15	0	0	0	0	315	
0	0	0	0	0	314	
1	0	0	0	0	315	
2	0	0	0	0	314	
3	0	0	0	0	314	
4	0	0	0	0	314	
5	0	0	0	0	314	
6	0	0	0	0	313	
7	0	0	0	0	313	
8	0	0	0	0	313	
9	0	0	0	0	312	
10	0	0	0	0	312	
11	0	0	0	0	312	
12	0	0	0	0	311	
13	0	0	0	0	311	
14	0	0	0	0	311	
15	0	0	0	0	311	
0	0	0	0	0	310	
1	0	0	0	0	310	
2	0	0	0	0	310	
3	0	0	0	0	310	
4	0	0	0	0	310	
5	0	0	0	0	309	
6	0	0	0	0	309	
7	0	0	0	0	309	
8	0	0	0	0	309	
9	0	0	0	0	309	
10	0	0	0	0	308	
11	0	0	0	0	308	
12	0	0	0	0	308	
13	0	0	0	0	308	
14	0	0	0	0	307	
15	0	0	0	0	308	
0	0	0	0	0	307	
1	0	0	0	0	307	
2	0	0	0	0	307	
3	0	0	0	0	307	
4	0	0	0	0	307	
5	0	0	0	0	307	
6	0	0	0	0	307	
7	0	0	0	0	307	
8	0	0	0	0	307	
9	0	0	0	0	306	
10	0	0	0	0	306	
11	0	0	0	0	306	
12	0	0	0	0	306	
13	0	0	0	0	306	
14	0	0	0	0	306	
15	0	0	0	0	306	
0	0	0	0	0	305	
1	0	0	0	0	306	
2	0	0	0	0	305	
3	0	0	0	0	306	
4	0	0	0	0	306	
5	0	0	0	0	306	
6	0	0	0	0	306	
7	0	0	0	0	306	
8	0	0	0	0	306	
9	0	0	0	0	307	
10	0	0	0	0	306	
11	0	0	0	0	307	
12	0	0	0	0	306	
13	0	0	0	0	307	
14	0	0	0	0	306	
15	0	0	0	0	306	
0	0	0	0	0	306	
1	0	0	0	0	306	
2	0	0	0	0	305	
3	0	0	0	0	306	
4	0	0	0	0	305	
5	0	0	0	0	305	
6	0	0	0	0	305	
7	0	0	0	0	305	
8	0	0	0	0	305	
9	0	0	0	0	305	
10	0	0	0	0	304	
11	0	0	0	0	304	
12	0	0	0	0	304	
13	0	0	0	0	304	
14	0	0	0	0	304	
15	0	0	0	0	304	
0	0	0	0	0	304	
1	0	0	0	0	304	
2	0	0	0	0	303	
3	0	0	0	0	303	
4	0	0	0	0	303	
5	0	0	0	0	303	
6	0	0	0	0	303	
7	0	0	0	0	303	
8	0	0	0	0	303	
9	0	0	0	0	303	
10	0	0	0	0	302	
11	0	0	0	0	302	
12	0	0	0	0	303	
13	0	0	0	0	304	
14	0	0	0	0	304	
15	0	0	0	0	305	
0	0	0	0	0	302	
1	0	0	0	0	303	
2	0	0	0	0	304	
3	0	0	0	0	305	
4	0	0	0	0	305	
5	0	0	0	0	306	
6	0	0	0	0	306	
7	0	0	0	0	307	
8	0	0	0	0	307	
9	0	0	0	0	307	
10	0	0	0	0	307	
11	0	0	0	0	307	
12	0	0	0	0	307	
13	0	0	0	0	308	
14	0	0	0	0	310	
15	0	0	0	0	311	
0	0	0	0	0	313	
1	0	0	0	0	316	
2	0	0	0	0	317	
3	0	0	0	0	320	
4	0	0	0	0	322	
5	0	0	0	0	323	
6	0	0	0	0	321	
7	0	0	0	0	321	
8	0	0	0	0	320	
9	0	0	0	0	321	
10	0	0	0	0	322	
11	0	0	0	0	323	
12	0	0	0	0	324	
13	0	0	0	0	326	
14	0	0	0	0	326	
15	0	0	0	0	327	
0	0	0	0	0	327	
1	0	0	0	0	328	
2	0	0	0	0	329	
3	0	0	0	0	330	
4	0	0	0	0	331	
5	0	0	0	0	332	
6	0	0	0	0	332	
7	0	0	0	0	333	
8	0	0	0	0	333	
9	0	0	0	0	332	
10	0	0	0	0	332	
11	0	0	0	0	332	
12	0	0	0	0	331	
13	0	0	0	0	330	
14	0	0	0	0	328	
15	0	0	0	0	327	
0	0	0	0	0	326	
1	0	0	0	0	325	
2	0	0	0	0	324	
3	0	0	0	0	323	
4	0	0	0	0	323	
5	0	0	0	0	322	
6	0	0	0	0	321	
7	0	0	0	0	321	
8	0	0	0	0	320	
9	0	0	0	0	320	
10	0	0	0	0	319	
11	0	0	0	0	319	
12	0	0	0	0	318	
13	0	0	0	0	318	
14	0	0	0	0	318	
15	0	0	0	0	317	
0	0	0	0	0	317	
1	0	0	0	0	316	
2	0	0	0	0	316	
3	0	0	0	0	316	
4	0	0	0	0	316	
5	0	0	0	0	316	
6	0	0	0	0	315	
7	0	0	0	0	315	
8	0	0	0	0	315	
9	0	0	0	0	314	
10	0	0	0	0	314	
11	0	0	0	0	314	
12	0	0	0	0	313	
13	0	0	0	0	313	
14	0	0	0	0	313	
15	0	0	0	0	313	
0	0	0	0	0	312	
1	0	0	0	0	312	
2	0	0	0	0	312	
3	0	0	0	0	312	
4	0	0	0	0	312	
5	0	0	0	0	311	
6	0	0	0	0	311	
7	0	0	0	0	311	
8	0	0	0	0	311	
9	0	0	0	0	311	
10	0	0	0	0	310	
11	0	0	0	0	310	
12	0	0	0	0	310	
13	0	0	0	0	310	
14	0	0	0	0	309	
15	0	0	0	0	309	
0	0	0	0	0	309	
1	0	0	0	0	309	
2	0	0	0	0	308	
3	0	0	0	0	309	
4	0	0	0	0	308	
5	0	0	0	0	309	
6	0	0	0	0	308	
7	0	0	0	0	309	
8	0	0	0	0	309	
9	0	0	0	0	309	
10	0	0	0	0	309	
11	0	0	0	0	310	
12	0	0	0	0	310	
13	0	0	0	0	311	
14	0	0	0	0	312	
15	0	0	0	0	312	
0	0	0	0	0	313	
1	0	0	0	0	314	
2	0	0	0	0	315	
3	0	0	0	0	316	
4	0	0	0	0	316	
5	0	0	0	0	316	
6	0	0	0	0	316	
7	0	0	0	0	316	
8	0	0	0	0	316	
9	0	0	0	0	316	
10	0	0	0	0	315	
11	0	0	0	0	315	
12	0	0	0	0	314	
13	0	0	0	0	313	
14	0	0	0	0	313	
15	0	0	0	0	312	
0	0	0	0	0	312	
1	0	0	0	0	312	
2	0	0	0	0	311	
3	0	0	0	0	311	
4	0	0	0	0	310	
5	0	0	0	0	310	
6	0	0	0	0	310	
7	0	0	0	0	310	
8	0	0	0	0	310	
9	0	0	0	0	311	
10	0	0	0	0	311	
11	0	0	0	0	312	
12	0	0	0	0	312	
13	0	0	0	0	312	
14	0	0	0	0	312	
15	0	0	0	0	313	
0	0	0	0	0	312	
1	0	0	0	0	312	
2	0	0	0	0	312	
3	0	0	0	0	312	
4	0	0	0	0	312	
5	0	0	0	0	311	
6	0	0	0	0	311	
7	0	0	0	0	310	
8	0	0	0	0	310	
9	0	0	0	0	310	
10	0	0	0	0	309	
11	0	0	0	0	308	
12	0	0	0	0	308	
13	0	0	0	0	308	
14	0	0	0	0	307	
15	0	0	0	0	307	
0	0	0	0	0	307	
1	0	0	0	0	306	
2	0	0	0	0	306	
3	0	0	0	0	306	
4	0	0	0	0	305	
5	0	0	0	0	305	
6	0	0	0	0	305	
7	0	0	0	0	305	
8	0	0	0	0	304	
9	0	0	0	0	304	
10	0	0	0	0	304	
11	0	0	0	0	304	
12	0	0	0	0	304	
13	0	0	0	0	304	
14	0	0	0	0	304	
15	0	0	0	0	304	
0	0	0	0	0	303	
1	0	0	0	0	303	
2	0	0	0	0	303	
3	0	0	0	0	303	
4	0	0	0	0	303	
5	0	0	0	0	303	
6	0	0	0	0	303	
7	0	0	0	0	303	
8	0	0	0	0	303	
9	0	0	0	0	303	
10	0	0	0	0	302	
11	0	0	0	0	302	
12	0	0	0	0	302	
13	0	0	0	0	302	
14	0	0	0	0	302	
15	0	0	0	0	302	
0	0	0	0	0	301	
1	0	0	0	0	302	
2	0	0	0	0	302	
3	0	0	0	0	302	
4	0	0	0	0	302	
5	0	0	0	0	302	
6	0	0	0	0	303	
7	0	0	0	0	303	
8	0	0	0	0	303	
9	0	0	0	0	303	
10	0	0	0	0	303	
11	0	0	0	0	303	
12	0	0	0	0	303	
13	0	0	0	0	303	
14	0	0	0	0	302	
15	0	0	0	0	303	
0	0	0	0	0	302	
1	0	0	0	0	302	
2	0	0	0	0	303	
3	0	0	0	0	303	
4	0	0	0	0	304	
5	0	0	0	0	305	
6	0	0	0	0	306	
7	0	0	0	0	307	
8	0	0	0	0	307	
9	0	0	0	0	308	
10	0	0	0	0	308	
11	0	0	0	0	308	
12	0	0	0	0	308	
13	0	0	0	0	308	
14	0	0	0	0	308	
15	0	0	0	0	308	
0	0	0	0	0	307	
1	0	0	0	0	307	
2	0	0	0	0	306	
3	0	0	0	0	305	
4	0	0	0	0	305	
5	0	0	0	0	305	
6	0	0	0	0	305	
7	0	0	0	0	306	
8	0	0	0	0	307	
9	0	0	0	0	308	
10	0	0	0	0	309	
11	0	0	0	0	311	
12	0	0	0	0	311	
13	0	0	0	0	312	
14	0	0	0	0	312	
15	0	0	0	0	313	
0	0	0	0	0	313	
1	0	0	0	0	313	
2	0	0	0	0	312	
3	0	0	0	0	312	
4	0	0	0	0	312	
5	0	0	0	0	312	
6	0	0	0	0	311	
7	0	0	0	0	310	
8	0	0	0	0	309	
9	0	0	0	0	309	
10	0	0	0	0	308	
11	0	0	0	0	307	
12	0	0	0	0	307	
13	0	0	0	0	306	
14	0	0	0	0	306	
15	0	0	0	0	305	
0	0	0	0	0	305	
1	0	0	0	0	305	
2	0	0	0	0	304	
3	0	0	0	0	304	
4	0	0	0	0	304	
5	0	0	0	0	303	
6	0	0	0	0	303	
7	0	0	0	0	303	
8	0	0	0	0	302	
9	0	0	0	0	302	
10	0	0	0	0	302	
11	0	0	0	0	302	
12	0	0	0	0	302	
13	0	0	0	0	302	
14	0	0	0	0	301	
15	0	0	0	0	301	
0	0	0	0	0	301	
1	0	0	0	0	301	
2	0	0	0	0	301	
3	0	0	0	0	301	
4	0	0	0	0	300	
5	0	0	0	0	300	
6	0	0	0	0	300	
7	0	0	0	0	300	
8	0	0	0	0	300	
9	0	0	0	0	300	
10	0	0	0	0	300	
11	0	0	0	0	300	
12	0	0	0	0	299	
13	0	0	0	0	299	
14	0	0	0	0	299	
15	0	0	0	0	299	
0	0	0	0	0	299	
1	0	0	0	0	299	
2	0	0	0	0	298	
3	0	0	0	0	298	
4	0	0	0	0	298	
5	0	0	0	0	298	
6	0	0	0	0	298	
7	0	0	0	0	297	
8	0	0	0	0	297	
9	0	0	0	0	297	
10	0	0	0	0	297	
11	0	0	0	0	297	
12	0	0	0	0	297	
13	0	0	0	0	296	
14	0	0	0	0	296	
15	0	0	0	0	296	
0	0	0	0	0	296	
1	0	0	0	0	297	
2	0	0	0	0	297	
3	0	0	0	0	299	
4	0	0	0	0	299	
5	0	0	0	0	300	
6	0	0	0	0	300	
7	0	0	0	0	301	
8	0	0	0	0	301	
9	0	0	0	0	302	
10	0	0	0	0	301	
11	0	0	0	0	302	
12	0	0	0	0	301	
13	0	0	0	0	301	
14	0	0	0	0	301	
15	0	0	0	0	300	
0	0	0	0	0	300	
1	0	0	0	0	300	
2	0	0	0	0	299	
3	0	0	0	0	299	
4	0	0	0	0	299	
5	0	0	0	0	298	
6	0	0	0	0	297	
7	0	0	0	0	297	
8	0	0	0	0	297	
9	0	0	0	0	297	
10	0	0	0	0	296	
11	0	0	0	0	296	
12	0	0	0	0	296	
13	0	0	0	0	296	
14	0	0	0	0	295	
15	0	0	0	0	295	
0	0	0	0	0	295	
1	0	0	0	0	295	
2	0	0	0	0	295	
3	0	0	0	0	295	
4	0	0	0	0	295	
5	0	0	0	0	295	
6	0	0	0	0	294	
7	0	0	0	0	294	
8	0	0	0	0	294	
9	0	0	0	0	294	
10	0	0	0	0	294	
11	0	0	0	0	294	
12	0	0	0	0	294	
13	0	0	0	0	293	
14	0	0	0	0	293	
15	0	0	0	0	293	
0	0	0	0	0	293	
1	0	0	0	0	293	
2	0	0	0	0	292	
3	0	0	0	0	293	
4	0	0	0	0	292	
5	0	0	0	0	292	
6	0	0	0	0	292	
7	0	0	0	0	292	
8	0	0	0	0	292	
9	0	0	0	0	292	
10	0	0	0	0	292	
11	0	0	0	0	292	
12	0	0	0	0	291	
13	0	0	0	0	291	
14	0	0	0	0	291	
15	0	0	0	0	292	
0	0	0	0	0	291	
1	0	0	0	0	291	
2	0	0	0	0	291	
3	0	0	0	0	291	
4	0	0	0	0	291	
5	0	0	0	0	292	
6	0	0	0	0	292	
7	0	0	0	0	294	
8	0	0	0	0	294	
9	0	0	0	0	295	
10	0	0	0	0	296	
11	0	0	0	0	297	
12	0	0	0	0	297	
13	0	0	0	0	298	
14	0	0	0	0	298	
15	0	0	0	0	299	
0	0	0	0	0	299	
1	0	0	0	0	299	
2	0	0	0	0	299	
3	0	0	0	0	299	
4	0	0	0	0	298	
5	0	0	0	0	298	
6	0	0	0	0	297	
7	0	0	0	0	297	
8	0	0	0	0	296	
9	0	0	0	0	296	
10	0	0	0	0	295	
11	0	0	0	0	295	
12	0	0	0	0	295	
13	0	0	0	0	295	
14	0	0	0	0	295	
15	0	0	0	0	295	
0	0	0	0	0	294	
1	0	0	0	0	294	
2	0	0	0	0	294	
3	0	0	0	0	294	
4	0	0	0	0	293	
5	0	0	0	0	293	
6	0	0	0	0	293	
7	0	0	0	0	293	
8	0	0	0	0	292	
9	0	0	0	0	292	
10	0	0	0	0	292	
11	0	0	0	0	292	
12	0	0	0	0	292	
13	0	0	0	0	292	
14	0	0	0	0	291	
15	0	0	0	0	291	
0	0	0	0	0	291	
1	0	0	0	0	291	
2	0	0	0	0	291	
3	0	0	0	0	291	
4	0	0	0	0	291	
5	0	0	0	0	291	
6	0	0	0	0	290	
7	0	0	0	0	290	
8	0	0	0	0	290	
9	0	0	0	0	290	
10	0	0	0	0	290	
11	0	0	0	0	290	
12	0	0	0	0	289	
13	0	0	0	0	289	
14	0	0	0	0	289	
15	0	0	0	0	289	
0	0	0	0	0	289	
1	0	0	0	0	289	
2	0	0	0	0	288	
3	0	0	0	0	289	
4	0	0	0	0	288	
5	0	0	0	0	288	
6	0	0	0	0	288	
7	0	0	0	0	288	
8	0	0	0	0	288	
9	0	0	0	0	288	
10	0	0	0	0	288	
11	0	0	0	0	288	
12	0	0	0	0	287	
13	0	0	0	0	288	
14	0	0	0	0	287	
15	0	0	0	0	287	
0	0	0	0	0	287	
1	0	0	0	0	287	
2	0	0	0	0	287	
3	0	0	0	0	287	
4	0	0	0	0	287	
5	0	0	0	0	287	
6	0	0	0	0	287	
7	0	0	0	0	287	
8	0	0	0	0	287	
9	0	0	0	0	287	
10	0	0	0	0	287	
11	0	0	0	0	287	
12	0	0	0	0	287	
13	0	0	0	0	287	
14	0	0	0	0	286	
15	0	0	0	0	287	
0	0	0	0	0	286	
1	0	0	0	0	286	
2	0	0	0	0	286	
3	0	0	0	0	286	
4	0	0	0	0	286	
5	0	0	0	0	286	
6	0	0	0	0	286	
7	0	0	0	0	286	
8	0	0	0	0	287	
9	0	0	0	0	288	
10	0	0	0	0	289	
11	0	0	0	0	291	
12	0	0	0	0	294	
13	0	0	0	0	296	
14	0	0	0	0	299	
15	0	0	0	0	301	
0	0	0	0	0	303	
1	0	0	0	0	304	
2	0	0	0	0	305	
3	0	0	0	0	306	
4	0	0	0	0	307	
5	0	0	0	0	307	
6	0	0	0	0	308	
7	0	0	0	0	308	
8	0	0	0	0	309	
9	0	0	0	0	309	
10	0	0	0	0	310	
11	0	0	0	0	311	
12	0	0	0	0	312	
13	0	0	0	0	313	
14	0	0	0	0	315	
15	0	0	0	0	315	
0	0	0	0	0	315	
1	0	0	0	0	314	
2	0	0	0	0	314	
3	0	0	0	0	313	
4	0	0	0	0	313	
5	0	0	0	0	313	
6	0	0	0	0	312	
7	0	0	0	0	313	
8	0	0	0	0	314	
9	0	0	0	0	315	
10	0	0	0	0	316	
11	0	0	0	0	317	
12	0	0	0	0	319	
13	0	0	0	0	320	
14	0	0	0	0	321	
15	0	0	0	0	323	
0	0	0	0	0	324	
1	0	0	0	0	324	
2	0	0	0	0	325	
3	0	0	0	0	325	
4	0	0	0	0	325	
5	0	0	0	0	325	
6	0	0	0	0	324	
7	0	0	0	0	324	
8	0	0	0	0	324	
9	0	0	0	0	323	
10	0	0	0	0	323	
11	0	0	0	0	322	
12	0	0	0	0	320	
13	0	0	0	0	320	
14	0	0	0	0	319	
15	0	0	0	0	319	
0	0	0	0	0	318	
1	0	0	0	0	318	
2	0	0	0	0	317	
3	0	0	0	0	316	
4	0	0	0	0	316	
5	0	0	0	0	316	
6	0	0	0	0	314	
7	0	0	0	0	315	
8	0	0	0	0	315	
9	0	0	0	0	315	
10	0	0	0	0	315	
11	0	0	0	0	315	
12	0	0	0	0	316	
13	0	0	0	0	316	
14	0	0	0	0	316	
15	0	0	0	0	316	
0	0	0	0	0	316	
1	0	0	0	0	316	
2	0	0	0	0	315	
3	0	0	0	0	315	
4	0	0	0	0	314	
5	0	0	0	0	314	
6	0	0	0	0	313	
7	0	0	0	0	313	
8	0	0	0	0	312	
9	0	0	0	0	312	
10	0	0	0	0	312	
11	0	0	0	0	312	
12	0	0	0	0	311	
13	0	0	0	0	311	
14	0	0	0	0	310	
15	0	0	0	0	310	
0	0	0	0	0	310	
1	0	0	0	0	310	
2	0	0	0	0	309	
3	0	0	0	0	309	
4	0	0	0	0	309	
5	0	0	0	0	308	
6	0	0	0	0	308	
7	0	0	0	0	308	
8	0	0	0	0	308	
9	0	0	0	0	308	
10	0	0	0	0	307	
11	0	0	0	0	308	
12	0	0	0	0	307	
13	0	0	0	0	308	
14	0	0	0	0	309	
15	0	0	0	0	310	
0	0	0	0	0	311	
1	0	0	0	0	312	
2	0	0	0	0	312	
3	0	0	0	0	313	
4	0	0	0	0	313	
5	0	0	0	0	313	
6	0	0	0	0	313	
7	0	0	0	0	313	
8	0	0	0	0	313	
9	0	0	0	0	313	
10	0	0	0	0	312	
11	0	0	0	0	312	
12	0	0	0	0	312	
13	0	0	0	0	311	
14	0	0	0	0	310	
15	0	0	0	0	310	
0	0	0	0	0	309	
1	0	0	0	0	309	
2	0	0	0	0	308	
3	0	0	0	0	308	
4	0	0	0	0	307	
5	0	0	0	0	307	
6	0	0	0	0	307	
7	0	0	0	0	307	
8	0	0	0	0	306	
9	0	0	0	0	306	
10	0	0	0	0	306	
11	0	0	0	0	306	
12	0	0	0	0	305	
13	0	0	0	0	305	
14	0	0	0	0	305	
15	0	0	0	0	305	
0	0	0	0	0	305	
1	0	0	0	0	305	
2	0	0	0	0	304	
3	0	0	0	0	304	
4	0	0	0	0	304	
5	0	0	0	0	304	
6	0	0	0	0	304	
7	0	0	0	0	304	
8	0	0	0	0	304	
9	0	0	0	0	304	
10	0	0	0	0	303	
11	0	0	0	0	303	
12	0	0	0	0	303	
13	0	0	0	0	303	
14	0	0	0	0	303	
15	0	0	0	0	303	
0	0	0	0	0	302	
1	0	0	0	0	302	
2	0	0	0	0	302	
3	0	0	0	0	302	
4	0	0	0	0	302	
5	0	0	0	0	303	
6	0	0	0	0	304	
7	0	0	0	0	304	
8	0	0	0	0	305	
9	0	0	0	0	306	
10	0	0	0	0	307	
11	0	0	0	0	308	
12	0	0	0	0	308	
13	0	0	0	0	309	
14	0	0	0	0	309	
15	0	0	0	0	309	
0	0	0	0	0	309	
1	0	0	0	0	309	
2	0	0	0	0	308	
3	0	0	0	0	308	
4	0	0	0	0	307	
5	0	0	0	0	307	
6	0	0	0	0	307	
7	0	0	0	0	306	
8	0	0	0	0	305	
9	0	0	0	0	305	
10	0	0	0	0	304	
11	0	0	0	0	304	
12	0	0	0	0	304	
13	0	0	0	0	304	
14	0	0	0	0	304	
15	0	0	0	0	303	
0	0	0	0	0	303	
1	0	0	0	0	304	
2	0	0	0	0	304	
3	0	0	0	0	304	
4	0	0	0	0	304	
5	0	0	0	0	304	
6	0	0	0	0	304	
7	0	0	0	0	304	
8	0	0	0	0	304	
9	0	0	0	0	304	
10	0	0	0	0	304	
11	0	0	0	0	304	
12	0	0	0	0	303	
13	0	0	0	0	303	
14	0	0	0	0	303	
15	0	0	0	0	303	
0	0	0	0	0	302	
1	0	0	0	0	302	
2	0	0	0	0	301	
3	0	0	0	0	301	
4	0	0	0	0	301	
5	0	0	0	0	301	
6	0	0	0	0	301	
7	0	0	0	0	301	
8	0	0	0	0	300	
9	0	0	0	0	300	
10	0	0	0	0	300	
11	0	0	0	0	300	
12	0	0	0	0	300	
13	0	0	0	0	300	
14	0	0	0	0	300	
15	0	0	0	0	300	
0	0	0	0	0	300	
1	0	0	0	0	300	
2	0	0	0	0	300	
3	0	0	0	0	300	
4	0	0	0	0	299	
5	0	0	0	0	299	
6	0	0	0	0	299	
7	0	0	0	0	299	
8	0	0	0	0	299	
9	0	0	0	0	299	
10	0	0	0	0	299	
11	0	0	0	0	299	
12	0	0	0	0	298	
13	0	0	0	0	298	
14	0	0	0	0	298	
15	0	0	0	0	298	
0	0	0	0	0	297	
1	0	0	0	0	297	
2	0	0	0	0	297	
3	0	0	0	0	297	
4	0	0	0	0	297	
5	0	0	0	0	297	
6	0	0	0	0	297	
7	0	0	0	0	297	
8	0	0	0	0	296	
9	0	0	0	0	297	
10	0	0	0	0	296	
11	0	0	0	0	296	
12	0	0	0	0	296	
13	0	0	0	0	296	
14	0	0	0	0	296	
15	0	0	0	0	296	
0	0	0	0	0	296	
1	0	0	0	0	296	
2	0	0	0	0	296	
3	0	0	0	0	297	
4	0	0	0	0	297	
5	0	0	0	0	297	
6	0	0	0	0	298	
7	0	0	0	0	298	
8	0	0	0	0	299	
9	0	0	0	0	299	
10	0	0	0	0	299	
11	0	0	0	0	299	
12	0	0	0	0	299	
13	0	0	0	0	299	
14	0	0	0	0	299	
15	0	0	0	0	299	
0	0	0	0	0	298	
1	0	0	0	0	298	
2	0	0	0	0	298	
3	0	0	0	0	297	
4	0	0	0	0	297	
5	0	0	0	0	297	
6	0	0	0	0	297	
7	0	0	0	0	296	
8	0	0	0	0	296	
9	0	0	0	0	296	
10	0	0	0	0	296	
11	0	0	0	0	296	
12	0	0	0	0	295	
13	0	0	0	0	295	
14	0	0	0	0	295	
15	0	0	0	0	295	
0	0	0	0	0	295	
1	0	0	0	0	295	
2	0	0	0	0	295	
3	0	0	0	0	295	
4	0	0	0	0	295	
5	0	0	0	0	295	
6	0	0	0	0	294	
7	0	0	0	0	295	
8	0	0	0	0	294	
9	0	0	0	0	294	
10	0	0	0	0	294	
11	0	0	0	0	294	
12	0	0	0	0	294	
13	0	0	0	0	294	
14	0	0	0	0	294	
15	0	0	0	0	294	
0	0	0	0	0	294	
1	0	0	0	0	294	
2	0	0	0	0	293	
3	0	0	0	0	294	
4	0	0	0	0	293	
5	0	0	0	0	293	
6	0	0	0	0	293	
7	0	0	0	0	293	
8	0	0	0	0	293	
9	0	0	0	0	293	
10	0	0	0	0	292	
11	0	0	0	0	292	
12	0	0	0	0	292	
13	0	0	0	0	292	
14	0	0	0	0	292	
15	0	0	0	0	292	
0	0	0	0	0	292	
1	0	0	0	0	292	
2	0	0	0	0	292	
3	0	0	0	0	295	
4	0	0	0	0	295	
5	0	0	0	0	295	
6	0	0	0	0	295	
7	0	0	0	0	295	
8	0	0	0	0	294	
9	0	0	0	0	295	
10	0	0	0	0	295	
11	0	0	0	0	295	
12	0	0	0	0	295	
13	0	0	0	0	295	
14	0	0	0	0	295	
15	0	0	0	0	296	
0	0	0	0	0	297	
1	0	0	0	0	297	
2	0	0	0	0	298	
3	0	0	0	0	299	
4	0	0	0	0	299	
5	0	0	0	0	300	
6	0	0	0	0	299	
7	0	0	0	0	300	
8	0	0	0	0	300	
9	0	0	0	0	300	
10	0	0	0	0	299	
11	0	0	0	0	299	
12	0	0	0	0	299	
13	0	0	0	0	299	
14	0	0	0	0	298	
15	0	0	0	0	298	
0	0	0	0	0	297	
1	0	0	0	0	297	
2	0	0	0	0	297	
3	0	0	0	0	297	
4	0	0	0	0	296	
5	0	0	0	0	296	
6	0	0	0	0	296	
7	0	0	0	0	296	
8	0	0	0	0	295	
9	0	0	0	0	295	
10	0	0	0	0	295	
11	0	0	0	0	295	
12	0	0	0	0	295	
13	0	0	0	0	295	
14	0	0	0	0	294	
15	0	0	0	0	295	
0	0	0	0	0	294	
1	0	0	0	0	294	
2	0	0	0	0	294	
3	0	0	0	0	294	
4	0	0	0	0	294	
5	0	0	0	0	294	
6	0	0	0	0	294	
7	0	0	0	0	294	
8	0	0	0	0	293	
9	0	0	0	0	293	
10	0	0	0	0	293	
11	0	0	0	0	293	
12	0	0	0	0	292	
13	0	0	0	0	293	
14	0	0	0	0	292	
15	0	0	0	0	292	
0	0	0	0	0	292	
1	0	0	0	0	292	
2	0	0	0	0	292	
3	0	0	0	0	292	
4	0	0	0	0	292	
5	0	0	0	0	292	
6	0	0	0	0	292	
7	0	0	0	0	292	
8	0	0	0	0	291	
9	0	0	0	0	292	
10	0	0	0	0	291	
11	0	0	0	0	291	
12	0	0	0	0	291	
13	0	0	0	0	291	
14	0	0	0	0	291	
15	0	0	0	0	291	
0	0	0	0	0	291	
1	0	0	0	0	291	
2	0	0	0	0	291	
3	0	0	0	0	291	
4	0	0	0	0	291	
5	0	0	0	0	291	
6	0	0	0	0	291	
7	0	0	0	0	291	
8	0	0	0	0	290	
9	0	0	0	0	291	
10	0	0	0	0	290	
11	0	0	0	0	291	
12	0	0	0	0	290	
13	0	0	0	0	291	
14	0	0	0	0	290	
15	0	0	0	0	291	
0	0	0	0	0	290	
1	0	0	0	0	290	
2	0	0	0	0	290	
3	0	0	0	0	290	
4	0	0	0	0	290	
5	0	0	0	0	290	
6	0	0	0	0	290	
7	0	0	0	0	290	
8	0	0	0	0	290	
9	0	0	0	0	290	
10	0	0	0	0	290	
11	0	0	0	0	290	
12	0	0	0	0	290	
13	0	0	0	0	290	
14	0	0	0	0	290	
15	0	0	0	0	290	
0	0	0	0	0	290	
1	0	0	0	0	291	
2	0	0	0	0	291	
3	0	0	0	0	291	
4	0	0	0	0	291	
5	0	0	0	0	290	
6	0	0	0	0	289	
7	0	0	0	0	290	
8	0	0	0	0	291	
9	0	0	0	0	291	
10	0	0	0	0	291	
11	0	0	0	0	291	
12	0	0	0	0	291	
13	0	0	0	0	291	
14	0	0	0	0	291	
15	0	0	0	0	291	
0	0	0	0	0	290	
1	0	0	0	0	289	
2	0	0	0	0	290	
3	0	0	0	0	290	
4	0	0	0	0	290	
5	0	0	0	0	290	
6	0	0	0	0	290	
7	0	0	0	0	290	
8	0	0	0	0	289	
9	0	0	0	0	290	
10	0	0	0	0	289	
11	0	0	0	0	289	
12	0	0	0	0	289	
13	0	0	0	0	289	
14	0	0	0	0	289	
15	0	0	0	0	289	
0	0	0	0	0	289	
1	0	0	0	0	289	
2	0	0	0	0	289	
3	0	0	0	0	289	
4	0	0	0	0	288	
5	0	0	0	0	288	
6	0	0	0	0	288	
7	0	0	0	0	288	
8	0	0	0	0	288	
9	0	0	0	0	288	
10	0	0	0	0	288	
11	0	0	0	0	288	
12	0	0	0	0	288	
13	0	0	0	0	288	
14	0	0	0	0	288	
15	0	0	0	0	288	
0	0	0	0	0	288	
1	0	0	0	0	288	
2	0	0	0	0	288	
3	0	0	0	0	288	
4	0	0	0	0	287	
5	0	0	0	0	288	
6	0	0	0	0	287	
7	0	0	0	0	287	
8	0	0	0	0	287	
9	0	0	0	0	287	
10	0	0	0	0	287	
11	0	0	0	0	287	
12	0	0	0	0	287	
13	0	0	0	0	287	
14	0	0	0	0	287	
15	0	0	0	0	287	
0	0	0	0	0	287	
1	0	0	0	0	287	
2	0	0	0	0	287	
3	0	0	0	0	287	
4	0	0	0	0	287	
5	0	0	0	0	287	
6	0	0	0	0	286	
7	0	0	0	0	287	
8	0	0	0	0	286	
9	0	0	0	0	286	
10	0	0	0	0	286	
11	0	0	0	0	286	
12	0	0	0	0	286	
13	0	0	0	0	286	
14	0	0	0	0	286	
15	0	0	0	0	286	
0	0	0	0	0	286	
1	0	0	0	0	286	
2	0	0	0	0	286	
3	0	0	0	0	286	
4	0	0	0	0	286	
5	0	0	0	0	286	
6	0	0	0	0	285	
7	0	0	0	0	286	
8	0	0	0	0	285	
9	0	0	0	0	285	
10	0	0	0	0	285	
11	0	0	0	0	285	
12	0	0	0	0	285	
13	0	0	0	0	285	
14	0	0	0	0	285	
15	0	0	0	0	285	
0	0	0	0	0	285	
1	0	0	0	0	285	
2	0	0	0	0	285	
3	0	0	0	0	285	
4	0	0	0	0	285	
5	0	0	0	0	286	
6	0	0	0	0	286	
7	0	0	0	0	287	
8	0	0	0	0	286	
9	0	0	0	0	286	
10	0	0	0	0	287	
11	0	0	0	0	288	
12	0	0	0	0	288	
13	0	0	0	0	288	
14	0	0	0	0	288	
15	0	0	0	0	288	
0	0	0	0	0	288	
1	0	0	0	0	288	
2	0	0	0	0	288	
3	0	0	0	0	288	
4	0	0	0	0	287	
5	0	0	0	0	287	
6	0	0	0	0	287	
7	0	0	0	0	287	
8	0	0	0	0	287	
9	0	0	0	0	287	
10	0	0	0	0	286	
11	0	0	0	0	287	
12	0	0	0	0	286	
13	0	0	0	0	286	
14	0	0	0	0	286	
15	0	0	0	0	286	
0	0	0	0	0	286	
1	0	0	0	0	286	
2	0	0	0	0	286	
3	0	0	0	0	286	
4	0	0	0	0	286	
5	0	0	0	0	286	
6	0	0	0	0	286	
7	0	0	0	0	286	
8	0	0	0	0	285	
9	0	0	0	0	285	
10	0	0	0	0	285	
11	0	0	0	0	285	
12	0	0	0	0	285	
13	0	0	0	0	285	
14	0	0	0	0	285	
15	0	0	0	0	285	
0	0	0	0	0	284	
1	0	0	0	0	284	
2	0	0	0	0	284	
3	0	0	0	0	284	
4	0	0	0	0	284	
5	0	0	0	0	284	
6	0	0	0	0	284	
7	0	0	0	0	284	
8	0	0	0	0	284	
9	0	0	0	0	284	
10	0	0	0	0	284	
11	0	0	0	0	284	
12	0	0	0	0	283	
13	0	0	0	0	284	
14	0	0	0	0	283	
15	0	0	0	0	284	
0	0	0	0	0	283	
1	0	0	0	0	283	
2	0	0	0	0	283	
3	0	0	0	0	283	
4	0	0	0	0	283	
5	0	0	0	0	283	
6	0	0	0	0	283	
7	0	0	0	0	283	
8	0	0	0	0	283	
9	0	0	0	0	283	
10	0	0	0	0	283	
11	0	0	0	0	283	
12	0	0	0	0	283	
13	0	0	0	0	283	
14	0	0	0	0	283	
15	0	0	0	0	283	
0	0	0	0	0	282	
1	0	0	0	0	283	
2	0	0	0	0	282	
3	0	0	0	0	282	
4	0	0	0	0	282	
5	0	0	0	0	282	
6	0	0	0	0	282	
7	0	0	0	0	282	
8	0	0	0	0	282	
9	0	0	0	0	282	
10	0	0	0	0	282	
11	0	0	0	0	282	
12	0	0	0	0	282	
13	0	0	0	0	282	
14	0	0	0	0	282	
15	0	0	0	0	282	
0	0	0	0	0	282	
1	0	0	0	0	282	
2	0	0	0	0	282	
3	0	0	0	0	282	
4	0	0	0	0	282	
5	0	0	0	0	282	
6	0	0	0	0	282	
7	0	0	0	0	283	
8	0	0	0	0	283	
9	0	0	0	0	283	
10	0	0	0	0	283	
11	0	0	0	0	283	
12	0	0	0	0	283	
13	0	0	0	0	283	
14	0	0	0	0	283	
15	0	0	0	0	283	
0	0	0	0	0	283	
1	0	0	0	0	283	
2	0	0	0	0	283	
3	0	0	0	0	283	
4	0	0	0	0	283	
5	0	0	0	0	283	
6	0	0	0	0	283	
7	0	0	0	0	283	
8	0	0	0	0	283	
9	0	0	0	0	283	
10	0	0	0	0	282	
11	0	0	0	0	283	
12	0	0	0	0	282	
13	0	0	0	0	283	
14	0	0	0	0	282	
15	0	0	0	0	283	
0	0	0	0	0	283	
1	0	0	0	0	283	
2	0	0	0	0	283	
3	0	0	0	0	283	
4	0	0	0	0	283	
5	0	0	0	0	283	
6	0	0	0	0	283	
7	0	0	0	0	283	
8	0	0	0	0	283	
9	0	0	0	0	284	
10	0	0	0	0	283	
11	0	0	0	0	284	
12	0	0	0	0	283	
13	0	0	0	0	283	
14	0	0	0	0	283	
15	0	0	0	0	283	
0	0	0	0	0	283	
1	0	0	0	0	283	
2	0	0	0	0	283	
3	0	0	0	0	283	
4	0	0	0	0	283	
5	0	0	0	0	283	
6	0	0	0	0	283	
7	0	0	0	0	283	
8	0	0	0	0	283	
9	0	0	0	0	284	
10	0	0	0	0	284	
11	0	0	0	0	284	
12	0	0	0	0	284	
13	0	0	0	0	284	
14	0	0	0	0	284	
15	0	0	0	0	284	
0	0	0	0	0	283	
1	0	0	0	0	284	
2	0	0	0	0	283	
3	0	0	0	0	283	
4	0	0	0	0	283	
5	0	0	0	0	283	
6	0	0	0	0	283	
7	0	0	0	0	283	
8	0	0	0	0	283	
9	0	0	0	0	284	
10	0	0	0	0	284	
11	0	0	0	0	285	
12	0	0	0	0	285	
13	0	0	0	0	286	
14	0	0	0	0	286	
15	0	0	0	0	286	
0	0	0	0	0	286	
1	0	0	0	0	286	
2	0	0	0	0	286	
3	0	0	0	0	286	
4	0	0	0	0	286	
5	0	0	0	0	286	
6	0	0	0	0	285	
7	0	0	0	0	285	
8	0	0	0	0	285	
9	0	0	0	0	285	
10	0	0	0	0	284	
11	0	0	0	0	284	
12	0	0	0	0	284	
13	0	0	0	0	284	
14	0	0	0	0	284	
15	0	0	0	0	284	
0	0	0	0	0	283	
1	0	0	0	0	283	
2	0	0	0	0	283	
3	0	0	0	0	283	
4	0	0	0	0	283	
5	0	0	0	0	283	
6	0	0	0	0	283	
7	0	0	0	0	283	
8	0	0	0	0	282	
9	0	0	0	0	282	
10	0	0	0	0	282	
11	0	0	0	0	282	
12	0	0	0	0	282	
13	0	0	0	0	282	
14	0	0	0	0	281	
15	0	0	0	0	281	
0	0	0	0	0	282	
1	0	0	0	0	282	
2	0	0	0	0	281	
3	0	0	0	0	282	
4	0	0	0	0	281	
5	0	0	0	0	282	
6	0	0	0	0	281	
7	0	0	0	0	282	
8	0	0	0	0	281	
9	0	0	0	0	281	
10	0	0	0	0	281	
11	0	0	0	0	281	
12	0	0	0	0	281	
13	0	0	0	0	281	
14	0	0	0	0	281	
15	0	0	0	0	281	
0	0	0	0	0	281	
1	0	0	0	0	281	
2	0	0	0	0	281	
3	0	0	0	0	281	
4	0	0	0	0	280	
5	0	0	0	0	280	
6	0	0	0	0	280	
7	0	0	0	0	280	
8	0	0	0	0	280	
9	0	0	0	0	280	
10	0	0	0	0	280	
11	0	0	0	0	280	
12	0	0	0	0	280	
13	0	0	0	0	280	
14	0	0	0	0	280	
15	0	0	0	0	280	
0	0	0	0	0	280	
1	0	0	0	0	280	
2	0	0	0	0	280	
3	0	0	0	0	281	
4	0	0	0	0	281	
5	0	0	0	0	283	
6	0	0	0	0	284	
7	0	0	0	0	286	
8	0	0	0	0	288	
9	0	0	0	0	291	
10	0	0	0	0	293	
11	0	0	0	0	295	
12	0	0	0	0	297	
13	0	0	0	0	299	
14	0	0	0	0	300	
15	0	0	0	0	300	
0	0	0	0	0	301	
1	0	0	0	0	301	
2	0	0	0	0	302	
3	0	0	0	0	302	
4	0	0	0	0	302	
5	0	0	0	0	302	
6	0	0	0	0	301	
7	0	0	0	0	301	
8	0	0	0	0	300	
9	0	0	0	0	300	
10	0	0	0	0	300	
11	0	0	0	0	299	
12	0	0	0	0	299	
13	0	0	0	0	299	
14	0	0	0	0	298	
15	0	0	0	0	297	
0	0	0	0	0	297	
1	0	0	0	0	297	
2	0	0	0	0	296	
3	0	0	0	0	296	
4	0	0	0	0	296	
5	0	0	0	0	295	
6	0	0	0	0	295	
7	0	0	0	0	295	
8	0	0	0	0	295	
9	0	0	0	0	295	
10	0	0	0	0	294	
11	0	0	0	0	294	
12	0	0	0	0	294	
13	0	0	0	0	293	
14	0	0	0	0	293	
15	0	0	0	0	293	
0	0	0	0	0	292	
1	0	0	0	0	292	
2	0	0	0	0	292	
3	0	0	0	0	292	
4	0	0	0	0	291	
5	0	0	0	0	291	
6	0	0	0	0	291	
7	0	0	0	0	291	
8	0	0	0	0	291	
9	0	0	0	0	291	
10	0	0	0	0	291	
11	0	0	0	0	291	
12	0	0	0	0	291	
13	0	0	0	0	292	
14	0	0	0	0	292	
15	0	0	0	0	293	
0	0	0	0	0	293	
1	0	0	0	0	294	
2	0	0	0	0	293	
3	0	0	0	0	294	
4	0	0	0	0	294	
5	0	0	0	0	294	
6	0	0	0	0	294	
7	0	0	0	0	294	
8	0	0	0	0	294	
9	0	0	0	0	294	
10	0	0	0	0	293	
11	0	0	0	0	293	
12	0	0	0	0	292	
13	0	0	0	0	292	
14	0	0	0	0	292	
15	0	0	0	0	292	
0	0	0	0	0	291	
1	0	0	0	0	291	
2	0	0	0	0	291	
3	0	0	0	0	291	
4	0	0	0	0	290	
5	0	0	0	0	290	
6	0	0	0	0	290	
7	0	0	0	0	290	
8	0	0	0	0	290	
9	0	0	0	0	290	
10	0	0	0	0	289	
11	0	0	0	0	289	
12	0	0	0	0	289	
13	0	0	0	0	289	
14	0	0	0	0	289	
15	0	0	0	0	289	
0	0	0	0	0	289	
1	0	0	0	0	289	
2	0	0	0	0	288	
3	0	0	0	0	288	
4	0	0	0	0	288	
5	0	0	0	0	288	
6	0	0	0	0	288	
7	0	0	0	0	288	
8	0	0	0	0	288	
9	0	0	0	0	288	
10	0	0	0	0	287	
11	0	0	0	0	287	
12	0	0	0	0	287	
13	0	0	0	0	287	
14	0	0	0	0	287	
15	0	0	0	0	287	
0	0	0	0	0	287	
1	0	0	0	0	287	
2	0	0	0	0	287	
3	0	0	0	0	287	
4	0	0	0	0	287	
5	0	0	0	0	287	
6	0	0	0	0	287	
7	0	0	0	0	287	
8	0	0	0	0	286	
9	0	0	0	0	287	
10	0	0	0	0	286	
11	0	0	0	0	286	
12	0	0	0	0	286	
13	0	0	0	0	286	
14	0	0	0	0	286	
15	0	0	0	0	286	
0	0	0	0	0	286	
1	0	0	0	0	286	
2	0	0	0	0	286	
3	0	0	0	0	286	
4	0	0	0	0	285	
5	0	0	0	0	285	
6	0	0	0	0	285	
7	0	0	0	0	285	
8	0	0	0	0	285	
9	0	0	0	0	285	
10	0	0	0	0	285	
11	0	0	0	0	285	
12	0	0	0	0	285	
13	0	0	0	0	285	
14	0	0	0	0	285	
15	0	0	0	0	285	
0	0	0	0	0	284	
1	0	0	0	0	284	
2	0	0	0	0	284	
3	0	0	0	0	284	
4	0	0	0	0	284	
5	0	0	0	0	284	
6	0	0	0	0	284	
7	0	0	0	0	284	
8	0	0	0	0	284	
9	0	0	0	0	284	
10	0	0	0	0	284	
11	0	0	0	0	284	
12	0	0	0	0	284	
13	0	0	0	0	284	
14	0	0	0	0	284	
15	0	0	0	0	284	
0	0	0	0	0	283	
1	0	0	0	0	283	
2	0	0	0	0	283	
3	0	0	0	0	283	
4	0	0	0	0	283	
5	0	0	0	0	283	
6	0	0	0	0	283	
7	0	0	0	0	283	
8	0	0	0	0	283	
9	0	0	0	0	283	
10	0	0	0	0	283	
11	0	0	0	0	283	
12	0	0	0	0	283	
13	0	0	0	0	283	
14	0	0	0	0	283	
15	0	0	0	0	283	
0	0	0	0	0	282	
1	0	0	0	0	283	
2	0	0	0	0	282	
3	0	0	0	0	282	
4	0	0	0	0	282	
5	0	0	0	0	282	
6	0	0	0	0	282	
7	0	0	0	0	282	
8	0	0	0	0	282	
9	0	0	0	0	282	
10	0	0	0	0	282	
11	0	0	0	0	282	
12	0	0	0	0	281	
13	0	0	0	0	282	
14	0	0	0	0	281	
15	0	0	0	0	281	
0	0	0	0	0	281	
1	0	0	0	0	281	
2	0	0	0	0	281	
3	0	0	0	0	281	
4	0	0	0	0	281	
5	0	0	0	0	281	
6	0	0	0	0	281	
7	0	0	0	0	281	
8	0	0	0	0	281	
9	0	0	0	0	281	
10	0	0	0	0	281	
11	0	0	0	0	281	
12	0	0	0	0	281	
13	0	0	0	0	281	
14	0	0	0	0	281	
15	0	0	0	0	281	
0	0	0	0	0	281	
1	0	0	0	0	281	
2	0	0	0	0	281	
3	0	0	0	0	281	
4	0	0	0	0	281	
5	0	0	0	0	281	
6	0	0	0	0	281	
7	0	0	0	0	281	
8	0	0	0	0	281	
9	0	0	0	0	281	
10	0	0	0	0	280	
11	0	0	0	0	280	
12	0	0	0	0	280	
13	0	0	0	0	280	
14	0	0	0	0	280	
15	0	0	0	0	280	
0	0	0	0	0	280	
1	0	0	0	0	280	
2	0	0	0	0	280	
3	0	0	0	0	280	
4	0	0	0	0	280	
5	0	0	0	0	280	
6	0	0	0	0	280	
7	0	0	0	0	280	
8	0	0	0	0	280	
9	0	0	0	0	280	
10	0	0	0	0	280	
11	0	0	0	0	280	
12	0	0	0	0	280	
13	0	0	0	0	280	
14	0	0	0	0	280	
15	0	0	0	0	280	
0	0	0	0	0	279	
1	0	0	0	0	280	
2	0	0	0	0	279	
3	0	0	0	0	279	
4	0	0	0	0	279	
5	0	0	0	0	279	
6	0	0	0	0	279	
7	0	0	0	0	279	
8	0	0	0	0	279	
9	0	0	0	0	279	
10	0	0	0	0	279	
11	0	0	0	0	279	
12	0	0	0	0	279	
13	0	0	0	0	279	
14	0	0	0	0	278	
15	0	0	0	0	279	
0	0	0	0	0	279	
1	0	0	0	0	279	
2	0	0	0	0	279	
3	0	0	0	0	280	
4	0	0	0	0	280	
5	0	0	0	0	280	
6	0	0	0	0	281	
7	0	0	0	0	281	
8	0	0	0	0	281	
9	0	0	0	0	282	
10	0	0	0	0	282	
11	0	0	0	0	283	
12	0	0	0	0	283	
13	0	0	0	0	283	
14	0	0	0	0	283	
15	0	0	0	0	283	
0	0	0	0	0	283	
1	0	0	0	0	282	
2	0	0	0	0	282	
3	0	0	0	0	282	
4	0	0	0	0	281	
5	0	0	0	0	281	
6	0	0	0	0	281	
7	0	0	0	0	281	
8	0	0	0	0	281	
9	0	0	0	0	281	
10	0	0	0	0	280	
11	0	0	0	0	280	
12	0	0	0	0	280	
13	0	0	0	0	280	
14	0	0	0	0	280	
15	0	0	0	0	280	
0	0	0	0	0	280	
1	0	0	0	0	280	
2	0	0	0	0	280	
3	0	0	0	0	280	
4	0	0	0	0	280	
5	0	0	0	0	280	
6	0	0	0	0	280	
7	0	0	0	0	280	
8	0	0	0	0	280	
9	0	0	0	0	280	
10	0	0	0	0	279	
11	0	0	0	0	280	
12	0	0	0	0	280	
13	0	0	0	0	280	
14	0	0	0	0	280	
15	0	0	0	0	280	
0	0	0	0	0	280	
1	0	0	0	0	281	
2	0	0	0	0	281	
3	0	0	0	0	282	
4	0	0	0	0	282	
5	0	0	0	0	283	
6	0	0	0	0	283	
7	0	0	0	0	284	
8	0	0	0	0	283	
9	0	0	0	0	284	
10	0	0	0	0	283	
11	0	0	0	0	283	
12	0	0	0	0	283	
13	0	0	0	0	283	
14	0	0	0	0	283	
15	0	0	0	0	283	
0	0	0	0	0	282	
1	0	0	0	0	282	
2	0	0	0	0	281	
3	0	0	0	0	281	
4	0	0	0	0	281	
5	0	0	0	0	281	
6	0	0	0	0	281	
7	0	0	0	0	281	
8	0	0	0	0	280	
9	0	0	0	0	280	
10	0	0	0	0	280	
11	0	0	0	0	280	
12	0	0	0	0	280	
13	0	0	0	0	280	
14	0	0	0	0	280	
15	0	0	0	0	280	
0	0	0	0	0	280	
1	0	0	0	0	280	
2	0	0	0	0	280	
3	0	0	0	0	280	
4	0	0	0	0	280	
5	0	0	0	0	280	
6	0	0	0	0	280	
7	0	0	0	0	280	
8	0	0	0	0	280	
9	0	0	0	0	280	
10	0	0	0	0	280	
11	0	0	0	0	280	
12	0	0	0	0	280	
13	0	0	0	0	280	
14	0	0	0	0	279	
15	0	0	0	0	279	
0	0	0	0	0	279	
1	0	0	0	0	279	
2	0	0	0	0	279	
3	0	0	0	0	279	
4	0	0	0	0	279	
5	0	0	0	0	279	
6	0	0	0	0	279	
7	0	0	0	0	279	
8	0	0	0	0	278	
9	0	0	0	0	279	
10	0	0	0	0	278	
11	0	0	0	0	278	
12	0	0	0	0	278	
13	0	0	0	0	278	
14	0	0	0	0	278	
15	0	0	0	0	278	
0	0	0	0	0	278	
1	0	0	0	0	279	
2	0	0	0	0	279	
3	0	0	0	0	280	
4	0	0	0	0	280	
5	0	0	0	0	281	
6	0	0	0	0	282	
7	0	0	0	0	283	
8	0	0	0	0	284	
9	0	0	0	0	284	
10	0	0	0	0	285	
11	0	0	0	0	286	
12	0	0	0	0	286	
13	0	0	0	0	286	
14	0	0	0	0	286	
15	0	0	0	0	287	
0	0	0	0	0	286	
1	0	0	0	0	286	
2	0	0	0	0	286	
3	0	0	0	0	285	
4	0	0	0	0	285	
5	0	0	0	0	285	
6	0	0	0	0	284	
7	0	0	0	0	284	
8	0	0	0	0	284	
9	0	0	0	0	284	
10	0	0	0	0	283	
11	0	0	0	0	283	
12	0	0	0	0	283	
13	0	0	0	0	283	
14	0	0	0	0	282	
15	0	0	0	0	282	
0	0	0	0	0	282	
1	0	0	0	0	282	
2	0	0	0	0	281	
3	0	0	0	0	281	
4	0	0	0	0	281	
5	0	0	0	0	281	
6	0	0	0	0	281	
7	0	0	0	0	281	
8	0	0	0	0	280	
9	0	0	0	0	281	
10	0	0	0	0	280	
11	0	0	0	0	280	
12	0	0	0	0	280	
13	0	0	0	0	280	
14	0	0	0	0	280	
15	0	0	0	0	280	
0	0	0	0	0	280	
1	0	0	0	0	280	
2	0	0	0	0	281	
3	0	0	0	0	282	
4	0	0	0	0	283	
5	0	0	0	0	284	
6	0	0	0	0	285	
7	0	0	0	0	287	
8	0	0	0	0	287	
9	0	0	0	0	288	
10	0	0	0	0	288	
11	0	0	0	0	289	
12	0	0	0	0	289	
13	0	0	0	0	289	
14	0	0	0	0	289	
15	0	0	0	0	289	
0	0	0	0	0	288	
1	0	0	0	0	287	
2	0	0	0	0	287	
3	0	0	0	0	287	
4	0	0	0	0	286	
5	0	0	0	0	286	
6	0	0	0	0	286	
7	0	0	0	0	286	
8	0	0	0	0	286	
9	0	0	0	0	286	
10	0	0	0	0	286	
11	0	0	0	0	286	
12	0	0	0	0	286	
13	0	0	0	0	287	
14	0	0	0	0	284	
15	0	0	0	0	283	
0	0	0	0	0	282	
1	0	0	0	0	281	
2	0	0	0	0	280	
3	0	0	0	0	281	
4	0	0	0	0	280	
5	0	0	0	0	280	
6	0	0	0	0	280	
7	0	0	0	0	279	
8	0	0	0	0	279	
9	0	0	0	0	279	
10	0	0	0	0	279	
11	0	0	0	0	279	
12	0	0	0	0	279	
13	0	0	0	0	279	
14	0	0	0	0	279	
15	0	0	0	0	279	
0	0	0	0	0	280	
1	0	0	0	0	280	
2	0	0	0	0	280	
3	0	0	0	0	281	
4	0	0	0	0	281	
5	0	0	0	0	282	
6	0	0	0	0	283	
7	0	0	0	0	283	
8	0	0	0	0	283	
9	0	0	0	0	284	
10	0	0	0	0	284	
11	0	0	0	0	284	
12	0	0	0	0	284	
13	0	0	0	0	284	
14	0	0	0	0	284	
15	0	0	0	0	284	
0	0	0	0	0	284	
1	0	0	0	0	284	
2	0	0	0	0	284	
3	0	0	0	0	285	
4	0	0	0	0	285	
5	0	0	0	0	285	
6	0	0	0	0	285	
7	0	0	0	0	285	
8	0	0	0	0	285	
9	0	0	0	0	285	
10	0	0	0	0	284	
11	0	0	0	0	284	
12	0	0	0	0	284	
13	0	0	0	0	284	
14	0	0	0	0	283	
15	0	0	0	0	283	
0	0	0	0	0	282	
1	0	0	0	0	282	
2	0	0	0	0	281	
3	0	0	0	0	281	
4	0	0	0	0	281	
5	0	0	0	0	281	
6	0	0	0	0	280	
7	0	0	0	0	280	
8	0	0	0	0	280	
9	0	0	0	0	280	
10	0	0	0	0	280	
11	0	0	0	0	280	
12	0	0	0	0	279	
13	0	0	0	0	279	
14	0	0	0	0	279	
15	0	0	0	0	279	
0	0	0	0	0	279	
1	0	0	0	0	279	
2	0	0	0	0	278	
3	0	0	0	0	278	
4	0	0	0	0	278	
5	0	0	0	0	278	
6	0	0	0	0	278	
7	0	0	0	0	278	
8	0	0	0	0	278	
9	0	0	0	0	278	
10	0	0	0	0	277	
11	0	0	0	0	278	
12	0	0	0	0	277	
13	0	0	0	0	277	
14	0	0	0	0	277	
15	0	0	0	0	277	
0	0	0	0	0	277	
1	0	0	0	0	277	
2	0	0	0	0	276	
3	0	0	0	0	276	
4	0	0	0	0	276	
5	0	0	0	0	276	
6	0	0	0	0	276	
7	0	0	0	0	276	
8	0	0	0	0	276	
9	0	0	0	0	276	
10	0	0	0	0	275	
11	0	0	0	0	276	
12	0	0	0	0	275	
13	0	0	0	0	275	
14	0	0	0	0	275	
15	0	0	0	0	275	
0	0	0	0	0	275	
1	0	0	0	0	275	
2	0	0	0	0	275	
3	0	0	0	0	275	
4	0	0	0	0	275	
5	0	0	0	0	275	
6	0	0	0	0	274	
7	0	0	0	0	275	
8	0	0	0	0	274	
9	0	0	0	0	274	
10	0	0	0	0	274	
11	0	0	0	0	274	
12	0	0	0	0	274	
13	0	0	0	0	274	
14	0	0	0	0	273	
15	0	0	0	0	273	
0	0	0	0	0	273	
1	0	0	0	0	273	
2	0	0	0	0	273	
3	0	0	0	0	273	
4	0	0	0	0	273	
5	0	0	0	0	273	
6	0	0	0	0	273	
7	0	0	0	0	273	
8	0	0	0	0	273	
9	0	0	0	0	273	
10	0	0	0	0	273	
11	0	0	0	0	273	
12	0	0	0	0	273	
13	0	0	0	0	273	
14	0	0	0	0	274	
15	0	0	0	0	274	
0	0	0	0	0	275	
1	0	0	0	0	275	
2	0	0	0	0	275	
3	0	0	0	0	276	
4	0	0	0	0	275	
5	0	0	0	0	275	
6	0	0	0	0	276	
7	0	0	0	0	276	
8	0	0	0	0	276	
9	0	0	0	0	276	
10	0	0	0	0	276	
11	0	0	0	0	276	
12	0	0	0	0	276	
13	0	0	0	0	276	
14	0	0	0	0	275	
15	0	0	0	0	276	
0	0	0	0	0	275	
1	0	0	0	0	275	
2	0	0	0	0	275	
3	0	0	0	0	275	
4	0	0	0	0	275	
5	0	0	0	0	275	
6	0	0	0	0	275	
7	0	0	0	0	275	
8	0	0	0	0	275	
9	0	0	0	0	275	
10	0	0	0	0	275	
11	0	0	0	0	275	
12	0	0	0	0	274	
13	0	0	0	0	275	
14	0	0	0	0	274	
15	0	0	0	0	275	
0	0	0	0	0	274	
1	0	0	0	0	275	
2	0	0	0	0	274	
3	0	0	0	0	275	
4	0	0	0	0	275	
5	0	0	0	0	275	
6	0	0	0	0	274	
7	0	0	0	0	274	
8	0	0	0	0	274	
9	0	0	0	0	274	
10	0	0	0	0	274	
11	0	0	0	0	274	
12	0	0	0	0	274	
13	0	0	0	0	274	
14	0	0	0	0	274	
15	0	0	0	0	274	
0	0	0	0	0	274	
1	0	0	0	0	274	
2	0	0	0	0	274	
3	0	0	0	0	274	
4	0	0	0	0	273	
5	0	0	0	0	273	
6	0	0	0	0	273	
7	0	0	0	0	273	
8	0	0	0	0	273	
9	0	0	0	0	273	
10	0	0	0	0	273	
11	0	0	0	0	273	
12	0	0	0	0	273	
13	0	0	0	0	273	
14	0	0	0	0	273	
15	0	0	0	0	273	
0	0	0	0	0	272	
1	0	0	0	0	272	
2	0	0	0	0	272	
3	0	0	0	0	272	
4	0	0	0	0	272	
5	0	0	0	0	272	
6	0	0	0	0	272	
7	0	0	0	0	272	
8	0	0	0	0	272	
9	0	0	0	0	272	
10	0	0	0	0	272	
11	0	0	0	0	272	
12	0	0	0	0	272	
13	0	0	0	0	272	
14	0	0	0	0	272	
15	0	0	0	0	272	
0	0	0	0	0	272	
1	0	0	0	0	273	
2	0	0	0	0	272	
3	0	0	0	0	273	
4	0	0	0	0	272	
5	0	0	0	0	273	
6	0	0	0	0	273	
7	0	0	0	0	273	
8	0	0	0	0	273	
9	0	0	0	0	273	
10	0	0	0	0	272	
11	0	0	0	0	272	
12	0	0	0	0	272	
13	0	0	0	0	272	
14	0	0	0	0	272	
15	0	0	0	0	272	
0	0	0	0	0	272	
1	0	0	0	0	272	
2	0	0	0	0	272	
3	0	0	0	0	272	
4	0	0	0	0	271	
5	0	0	0	0	271	
6	0	0	0	0	271	
7	0	0	0	0	271	
8	0	0	0	0	271	
9	0	0	0	0	271	
10	0	0	0	0	271	
11	0	0	0	0	271	
12	0	0	0	0	271	
13	0	0	0	0	271	
14	0	0	0	0	271	
15	0	0	0	0	271	
0	0	0	0	0	271	
1	0	0	0	0	271	
2	0	0	0	0	271	
3	0	0	0	0	271	
4	0	0	0	0	271	
5	0	0	0	0	271	
6	0	0	0	0	271	
7	0	0	0	0	271	
8	0	0	0	0	271	
9	0	0	0	0	271	
10	0	0	0	0	271	
11	0	0	0	0	271	
12	0	0	0	0	271	
13	0	0	0	0	271	
14	0	0	0	0	271	
15	0	0	0	0	271	
0	0	0	0	0	271	
1	0	0	0	0	271	
2	0	0	0	0	271	
3	0	0	0	0	271	
4	0	0	0	0	271	
5	0	0	0	0	271	
6	0	0	0	0	270	
7	0	0	0	0	271	
8	0	0	0	0	270	
9	0	0	0	0	271	
10	0	0	0	0	270	
11	0	0	0	0	270	
12	0	0	0	0	270	
13	0	0	0	0	270	
14	0	0	0	0	270	
15	0	0	0	0	271	
0	0	0	0	0	273	
1	0	0	0	0	273	
2	0	0	0	0	272	
3	0	0	0	0	271	
4	0	0	0	0	271	
5	0	0	0	0	271	
6	0	0	0	0	272	
7	0	0	0	0	272	
8	0	0	0	0	271	
9	0	0	0	0	270	
10	0	0	0	0	269	
11	0	0	0	0	269	
12	0	0	0	0	270	
13	0	0	0	0	270	
14	0	0	0	0	271	
15	0	0	0	0	272	
0	0	0	0	0	273	
1	0	0	0	0	276	
2	0	0	0	0	278	
3	0	0	0	0	280	
4	0	0	0	0	283	
5	0	0	0	0	285	
6	0	0	0	0	287	
7	0	0	0	0	289	
8	0	0	0	0	291	
9	0	0	0	0	292	
10	0	0	0	0	294	
11	0	0	0	0	295	
12	0	0	0	0	295	
13	0	0	0	0	296	
14	0	0	0	0	296	
15	0	0	0	0	297	
0	0	0	0	0	298	
1	0	0	0	0	299	
2	0	0	0	0	299	
3	0	0	0	0	299	
4	0	0	0	0	299	
5	0	0	0	0	299	
6	0	0	0	0	299	
7	0	0	0	0	299	
8	0	0	0	0	299	
9	0	0	0	0	299	
10	0	0	0	0	300	
11	0	0	0	0	301	
12	0	0	0	0	303	
13	0	0	0	0	305	
14	0	0	0	0	307	
15	0	0	0	0	310	
0	0	0	0	0	312	
1	0	0	0	0	315	
2	0	0	0	0	316	
3	0	0	0	0	318	
4	0	0	0	0	320	
5	0	0	0	0	322	
6	0	0	0	0	324	
7	0	0	0	0	326	
8	0	0	0	0	327	
9	0	0	0	0	328	
10	0	0	0	0	329	
11	0	0	0	0	329	
12	0	0	0	0	329	
13	0	0	0	0	329	
14	0	0	0	0	329	
15	0	0	0	0	329	
0	0	0	0	0	328	
1	0	0	0	0	327	
2	0	0	0	0	327	
3	0	0	0	0	326	
4	0	0	0	0	325	
5	0	0	0	0	325	
6	0	0	0	0	325	
7	0	0	0	0	324	
8	0	0	0	0	324	
9	0	0	0	0	324	
10	0	0	0	0	323	
11	0	0	0	0	323	
12	0	0	0	0	323	
13	0	0	0	0	322	
14	0	0	0	0	321	
15	0	0	0	0	321	
0	0	0	0	0	321	
1	0	0	0	0	321	
2	0	0	0	0	320	
3	0	0	0	0	320	
4	0	0	0	0	320	
5	0	0	0	0	320	
6	0	0	0	0	320	
7	0	0	0	0	322	
8	0	0	0	0	324	
9	0	0	0	0	326	
10	0	0	0	0	328	
11	0	0	0	0	331	
12	0	0	0	0	334	
13	0	0	0	0	335	
14	0	0	0	0	336	
15	0	0	0	0	337	
0	0	0	0	0	337	
1	0	0	0	0	338	
2	0	0	0	0	339	
3	0	0	0	0	339	
4	0	0	0	0	339	
5	0	0	0	0	340	
6	0	0	0	0	339	
7	0	0	0	0	340	
8	0	0	0	0	340	
9	0	0	0	0	340	
10	0	0	0	0	340	
11	0	0	0	0	340	
12	0	0	0	0	339	
13	0	0	0	0	339	
14	0	0	0	0	339	
15	0	0	0	0	339	
0	0	0	0	0	338	
1	0	0	0	0	337	
2	0	0	0	0	336	
3	0	0	0	0	335	
4	0	0	0	0	334	
5	0	0	0	0	334	
6	0	0	0	0	332	
7	0	0	0	0	332	
8	0	0	0	0	332	
9	0	0	0	0	333	
10	0	0	0	0	334	
11	0	0	0	0	335	
12	0	0	0	0	337	
13	0	0	0	0	338	
14	0	0	0	0	339	
15	0	0	0	0	341	
0	0	0	0	0	342	
1	0	0	0	0	342	
2	0	0	0	0	342	
3	0	0	0	0	342	
4	0	0	0	0	342	
5	0	0	0	0	341	
6	0	0	0	0	340	
7	0	0	0	0	339	
8	0	0	0	0	338	
9	0	0	0	0	337	
10	0	0	0	0	336	
11	0	0	0	0	335	
12	0	0	0	0	334	
13	0	0	0	0	333	
14	0	0	0	0	332	
15	0	0	0	0	332	
0	0	0	0	0	331	
1	0	0	0	0	330	
2	0	0	0	0	329	
3	0	0	0	0	329	
4	0	0	0	0	328	
5	0	0	0	0	328	
6	0	0	0	0	327	
7	0	0	0	0	327	
8	0	0	0	0	327	
9	0	0	0	0	327	
10	0	0	0	0	326	
11	0	0	0	0	326	
12	0	0	0	0	325	
13	0	0	0	0	325	
14	0	0	0	0	324	
15	0	0	0	0	324	
0	0	0	0	0	324	
1	0	0	0	0	324	
2	0	0	0	0	323	
3	0	0	0	0	323	
4	0	0	0	0	323	
5	0	0	0	0	323	
6	0	0	0	0	323	
7	0	0	0	0	323	
8	0	0	0	0	322	
9	0	0	0	0	322	
10	0	0	0	0	322	
11	0	0	0	0	322	
12	0	0	0	0	322	
13	0	0	0	0	323	
14	0	0	0	0	325	
15	0	0	0	0	328	
0	0	0	0	0	330	
1	0	0	0	0	333	
2	0	0	0	0	335	
3	0	0	0	0	337	
4	0	0	0	0	339	
5	0	0	0	0	341	
6	0	0	0	0	342	
7	0	0	0	0	344	
8	0	0	0	0	344	
9	0	0	0	0	346	
10	0	0	0	0	347	
11	0	0	0	0	347	
12	0	0	0	0	348	
13	0	0	0	0	348	
14	0	0	0	0	348	
15	0	0	0	0	347	
0	0	0	0	0	347	
1	0	0	0	0	346	
2	0	0	0	0	344	
3	0	0	0	0	343	
4	0	0	0	0	342	
5	0	0	0	0	341	
6	0	0	0	0	340	
7	0	0	0	0	339	
8	0	0	0	0	340	
9	0	0	0	0	341	
10	0	0	0	0	343	
11	0	0	0	0	345	
12	0	0	0	0	348	
13	0	0	0	0	350	
14	0	0	0	0	352	
15	0	0	0	0	354	
0	0	0	0	0	355	
1	0	0	0	0	356	
2	0	0	0	0	357	
3	0	0	0	0	358	
4	0	0	0	0	358	
5	0	0	0	0	359	
6	0	0	0	0	359	
7	0	0	0	0	359	
8	0	0	0	0	359	
9	0	0	0	0	359	
10	0	0	0	0	358	
11	0	0	0	0	358	
12	0	0	0	0	356	
13	0	0	0	0	355	
14	0	0	0	0	354	
15	0	0	0	0	353	
0	0	0	0	0	351	
1	0	0	0	0	350	
2	0	0	0	0	348	
3	0	0	0	0	347	
4	0	0	0	0	346	
5	0	0	0	0	345	
6	0	0	0	0	344	
7	0	0	0	0	343	
8	0	0	0	0	342	
9	0	0	0	0	341	
10	0	0	0	0	340	
11	0	0	0	0	340	
12	0	0	0	0	339	
13	0	0	0	0	339	
14	0	0	0	0	339	
15	0	0	0	0	339	
0	0	0	0	0	338	
1	0	0	0	0	338	
2	0	0	0	0	337	
3	0	0	0	0	337	
4	0	0	0	0	337	
5	0	0	0	0	337	
6	0	0	0	0	336	
7	0	0	0	0	336	
8	0	0	0	0	335	
9	0	0	0	0	335	
10	0	0	0	0	335	
11	0	0	0	0	335	
12	0	0	0	0	334	
13	0	0	0	0	334	
14	0	0	0	0	334	
15	0	0	0	0	334	
0	0	0	0	0	333	
1	0	0	0	0	333	
2	0	0	0	0	332	
3	0	0	0	0	333	
4	0	0	0	0	332	
5	0	0	0	0	332	
6	0	0	0	0	332	
7	0	0	0	0	332	
8	0	0	0	0	331	
9	0	0	0	0	331	
10	0	0	0	0	331	
11	0	0	0	0	331	
12	0	0	0	0	331	
13	0	0	0	0	331	
14	0	0	0	0	330	
15	0	0	0	0	330	
0	0	0	0	0	330	
1	0	0	0	0	330	
2	0	0	0	0	329	
3	0	0	0	0	329	
4	0	0	0	0	329	
5	0	0	0	0	329	
6	0	0	0	0	329	
7	0	0	0	0	328	
8	0	0	0	0	328	
9	0	0	0	0	328	
10	0	0	0	0	328	
11	0	0	0	0	327	
12	0	0	0	0	327	
13	0	0	0	0	327	
14	0	0	0	0	327	
15	0	0	0	0	327	
0	0	0	0	0	327	
1	0	0	0	0	327	
2	0	0	0	0	327	
3	0	0	0	0	327	
4	0	0	0	0	327	
5	0	0	0	0	327	
6	0	0	0	0	327	
7	0	0	0	0	327	
8	0	0	0	0	327	
9	0	0	0	0	327	
10	0	0	0	0	326	
11	0	0	0	0	326	
12	0	0	0	0	326	
13	0	0	0	0	326	
14	0	0	0	0	325	
15	0	0	0	0	325	
0	0	0	0	0	325	
1	0	0	0	0	324	
2	0	0	0	0	324	
3	0	0	0	0	324	
4	0	0	0	0	323	
5	0	0	0	0	323	
6	0	0	0	0	323	
7	0	0	0	0	323	
8	0	0	0	0	323	
9	0	0	0	0	323	
10	0	0	0	0	322	
11	0	0	0	0	322	
12	0	0	0	0	322	
13	0	0	0	0	322	
14	0	0	0	0	321	
15	0	0	0	0	321	
0	0	0	0	0	321	
1	0	0	0	0	321	
2	0	0	0	0	321	
3	0	0	0	0	321	
4	0	0	0	0	320	
5	0	0	0	0	320	
6	0	0	0	0	320	
7	0	0	0	0	320	
8	0	0	0	0	320	
9	0	0	0	0	320	
10	0	0	0	0	319	
11	0	0	0	0	320	
12	0	0	0	0	319	
13	0	0	0	0	318	
14	0	0	0	0	317	
15	0	0	0	0	318	
0	0	0	0	0	318	
1	0	0	0	0	318	
2	0	0	0	0	318	
3	0	0	0	0	318	
4	0	0	0	0	317	
5	0	0	0	0	317	
6	0	0	0	0	317	
7	0	0	0	0	317	
8	0	0	0	0	317	
9	0	0	0	0	317	
10	0	0	0	0	317	
11	0	0	0	0	317	
12	0	0	0	0	317	
13	0	0	0	0	317	
14	0	0	0	0	317	
15	0	0	0	0	317	
0	0	0	0	0	317	
1	0	0	0	0	318	
2	0	0	0	0	318	
3	0	0	0	0	319	
4	0	0	0	0	319	
5	0	0	0	0	319	
6	0	0	0	0	320	
7	0	0	0	0	320	
8	0	0	0	0	321	
9	0	0	0	0	321	
10	0	0	0	0	321	
11	0	0	0	0	321	
12	0	0	0	0	321	
13	0	0	0	0	321	
14	0	0	0	0	320	
15	0	0	0	0	320	
0	0	0	0	0	320	
1	0	0	0	0	320	
2	0	0	0	0	320	
3	0	0	0	0	321	
4	0	0	0	0	321	
5	0	0	0	0	321	
6	0	0	0	0	322	
7	0	0	0	0	322	
8	0	0	0	0	322	
9	0	0	0	0	322	
10	0	0	0	0	322	
11	0	0	0	0	322	
12	0	0	0	0	321	
13	0	0	0	0	321	
14	0	0	0	0	320	
15	0	0	0	0	321	
0	0	0	0	0	321	
1	0	0	0	0	321	
2	0	0	0	0	320	
3	0	0	0	0	320	
4	0	0	0	0	320	
5	0	0	0	0	320	
6	0	0	0	0	320	
7	0	0	0	0	319	
8	0	0	0	0	319	
9	0	0	0	0	319	
10	0	0	0	0	319	
11	0	0	0	0	319	
12	0	0	0	0	319	
13	0	0	0	0	319	
14	0	0	0	0	319	
15	0	0	0	0	319	
0	0	0	0	0	320	
1	0	0	0	0	320	
2	0	0	0	0	320	
3	0	0	0	0	321	
4	0	0	0	0	322	
5	0	0	0	0	323	
6	0	0	0	0	324	
7	0	0	0	0	324	
8	0	0	0	0	324	
9	0	0	0	0	324	
10	0	0	0	0	323	
11	0	0	0	0	323	
12	0	0	0	0	322	
13	0	0	0	0	322	
14	0	0	0	0	321	
15	0	0	0	0	321	
0	0	0	0	0	320	
1	0	0	0	0	320	
2	0	0	0	0	319	
3	0	0	0	0	319	
4	0	0	0	0	319	
5	0	0	0	0	319	
6	0	0	0	0	319	
7	0	0	0	0	319	
8	0	0	0	0	319	
9	0	0	0	0	318	
10	0	0	0	0	316	
11	0	0	0	0	316	
12	0	0	0	0	314	
13	0	0	0	0	315	
14	0	0	0	0	316	
15	0	0	0	0	316	
0	0	0	0	0	316	
1	0	0	0	0	316	
2	0	0	0	0	315	
3	0	0	0	0	315	
4	0	0	0	0	314	
5	0	0	0	0	314	
6	0	0	0	0	314	
7	0	0	0	0	314	
8	0	0	0	0	313	
9	0	0	0	0	314	
10	0	0	0	0	313	
11	0	0	0	0	313	
12	0	0	0	0	313	
13	0	0	0	0	313	
14	0	0	0	0	314	
15	0	0	0	0	313	
0	0	0	0	0	313	
1	0	0	0	0	313	
2	0	0	0	0	313	
3	0	0	0	0	313	
4	0	0	0	0	313	
5	0	0	0	0	313	
6	0	0	0	0	313	
7	0	0	0	0	314	
8	0	0	0	0	315	
9	0	0	0	0	316	
10	0	0	0	0	319	
11	0	0	0	0	322	
12	0	0	0	0	325	
13	0	0	0	0	328	
14	0	0	0	0	331	
15	0	0	0	0	333	
0	0	0	0	0	335	
1	0	0	0	0	336	
2	0	0	0	0	337	
3	0	0	0	0	339	
4	0	0	0	0	340	
5	0	0	0	0	342	
6	0	0	0	0	343	
7	0	0	0	0	343	
8	0	0	0	0	344	
9	0	0	0	0	344	
10	0	0	0	0	344	
11	0	0	0	0	344	
12	0	0	0	0	343	
13	0	0	0	0	343	
14	0	0	0	0	342	
15	0	0	0	0	341	
0	0	0	0	0	340	
1	0	0	0	0	340	
2	0	0	0	0	339	
3	0	0	0	0	337	
4	0	0	0	0	335	
5	0	0	0	0	334	
6	0	0	0	0	332	
7	0	0	0	0	333	
8	0	0	0	0	333	
9	0	0	0	0	332	
10	0	0	0	0	332	
11	0	0	0	0	332	
12	0	0	0	0	331	
13	0	0	0	0	331	
14	0	0	0	0	331	
15	0	0	0	0	330	
0	0	0	0	0	329	
1	0	0	0	0	329	
2	0	0	0	0	328	
3	0	0	0	0	329	
4	0	0	0	0	330	
5	0	0	0	0	332	
6	0	0	0	0	334	
7	0	0	0	0	335	
8	0	0	0	0	337	
9	0	0	0	0	339	
10	0	0	0	0	340	
11	0	0	0	0	341	
12	0	0	0	0	341	
13	0	0	0	0	341	
14	0	0	0	0	341	
15	0	0	0	0	341	
0	0	0	0	0	340	
1	0	0	0	0	340	
2	0	0	0	0	339	
3	0	0	0	0	338	
4	0	0	0	0	337	
5	0	0	0	0	336	
6	0	0	0	0	335	
7	0	0	0	0	334	
8	0	0	0	0	333	
9	0	0	0	0	332	
10	0	0	0	0	331	
11	0	0	0	0	331	
12	0	0	0	0	330	
13	0	0	0	0	329	
14	0	0	0	0	328	
15	0	0	0	0	328	
0	0	0	0	0	327	
1	0	0	0	0	327	
2	0	0	0	0	327	
3	0	0	0	0	327	
4	0	0	0	0	326	
5	0	0	0	0	326	
6	0	0	0	0	326	
7	0	0	0	0	325	
8	0	0	0	0	325	
9	0	0	0	0	324	
10	0	0	0	0	324	
11	0	0	0	0	324	
12	0	0	0	0	323	
13	0	0	0	0	323	
14	0	0	0	0	323	
15	0	0	0	0	323	
0	0	0	0	0	323	
1	0	0	0	0	323	
2	0	0	0	0	322	
3	0	0	0	0	322	
4	0	0	0	0	322	
5	0	0	0	0	322	
6	0	0	0	0	321	
7	0	0	0	0	321	
8	0	0	0	0	321	
9	0	0	0	0	321	
10	0	0	0	0	321	
11	0	0	0	0	321	
12	0	0	0	0	320	
13	0	0	0	0	321	
14	0	0	0	0	320	
15	0	0	0	0	321	
0	0	0	0	0	321	
1	0	0	0	0	321	
2	0	0	0	0	321	
3	0	0	0	0	322	
4	0	0	0	0	323	
5	0	0	0	0	324	
6	0	0	0	0	324	
7	0	0	0	0	325	
8	0	0	0	0	326	
9	0	0	0	0	326	
10	0	0	0	0	326	
11	0	0	0	0	326	
12	0	0	0	0	326	
13	0	0	0	0	326	
14	0	0	0	0	325	
15	0	0	0	0	325	
0	0	0	0	0	324	
1	0	0	0	0	324	
2	0	0	0	0	323	
3	0	0	0	0	323	
4	0	0	0	0	322	
5	0	0	0	0	322	
6	0	0	0	0	321	
7	0	0	0	0	321	
8	0	0	0	0	320	
9	0	0	0	0	320	
10	0	0	0	0	319	
11	0	0	0	0	319	
12	0	0	0	0	319	
13	0	0	0	0	319	
14	0	0	0	0	318	
15	0	0	0	0	318	
0	0	0	0	0	318	
1	0	0	0	0	317	
2	0	0	0	0	317	
3	0	0	0	0	319	
4	0	0	0	0	319	
5	0	0	0	0	318	
6	0	0	0	0	321	
7	0	0	0	0	327	
8	0	0	0	0	328	
9	0	0	0	0	329	
10	0	0	0	0	330	
11	0	0	0	0	332	
12	0	0	0	0	333	
13	0	0	0	0	335	
14	0	0	0	0	335	
15	0	0	0	0	337	
0	0	0	0	0	336	
1	0	0	0	0	336	
2	0	0	0	0	336	
3	0	0	0	0	337	
4	0	0	0	0	339	
5	0	0	0	0	341	
6	0	0	0	0	343	
7	0	0	0	0	344	
8	0	0	0	0	346	
9	0	0	0	0	348	
10	0	0	0	0	350	
11	0	0	0	0	351	
12	0	0	0	0	352	
13	0	0	0	0	353	
14	0	0	0	0	353	
15	0	0	0	0	354	
0	0	0	0	0	354	
1	0	0	0	0	354	
2	0	0	0	0	353	
3	0	0	0	0	353	
4	0	0	0	0	353	
5	0	0	0	0	353	
6	0	0	0	0	352	
7	0	0	0	0	352	
8	0	0	0	0	352	
9	0	0	0	0	352	
10	0	0	0	0	352	
11	0	0	0	0	351	
12	0	0	0	0	351	
13	0	0	0	0	351	
14	0	0	0	0	350	
15	0	0	0	0	350	
0	0	0	0	0	348	
1	0	0	0	0	348	
2	0	0	0	0	347	
3	0	0	0	0	347	
4	0	0	0	0	346	
5	0	0	0	0	346	
6	0	0	0	0	347	
7	0	0	0	0	347	
8	0	0	0	0	348	
9	0	0	0	0	349	
10	0	0	0	0	350	
11	0	0	0	0	351	
12	0	0	0	0	352	
13	0	0	0	0	352	
14	0	0	0	0	352	
15	0	0	0	0	352	
0	0	0	0	0	352	
1	0	0	0	0	352	
2	0	0	0	0	352	
3	0	0	0	0	351	
4	0	0	0	0	351	
5	0	0	0	0	350	
6	0	0	0	0	349	
7	0	0	0	0	349	
8	0	0	0	0	348	
9	0	0	0	0	347	
10	0	0	0	0	347	
11	0	0	0	0	347	
12	0	0	0	0	347	
13	0	0	0	0	348	
14	0	0	0	0	350	
15	0	0	0	0	351	
0	0	0	0	0	353	
1	0	0	0	0	354	
2	0	0	0	0	355	
3	0	0	0	0	356	
4	0	0	0	0	357	
5	0	0	0	0	358	
6	0	0	0	0	358	
7	0	0	0	0	358	
8	0	0	0	0	358	
9	0	0	0	0	357	
10	0	0	0	0	356	
11	0	0	0	0	356	
12	0	0	0	0	355	
13	0	0	0	0	354	
14	0	0	0	0	353	
15	0	0	0	0	352	
0	0	0	0	0	351	
1	0	0	0	0	351	
2	0	0	0	0	350	
3	0	0	0	0	349	
4	0	0	0	0	348	
5	0	0	0	0	348	
6	0	0	0	0	348	
7	0	0	0	0	347	
8	0	0	0	0	347	
9	0	0	0	0	347	
10	0	0	0	0	346	
11	0	0	0	0	346	
12	0	0	0	0	345	
13	0	0	0	0	345	
14	0	0	0	0	345	
15	0	0	0	0	345	
0	0	0	0	0	344	
1	0	0	0	0	344	
2	0	0	0	0	344	
3	0	0	0	0	344	
4	0	0	0	0	344	
5	0	0	0	0	344	
6	0	0	0	0	343	
7	0	0	0	0	343	
8	0	0	0	0	343	
9	0	0	0	0	343	
10	0	0	0	0	343	
11	0	0	0	0	343	
12	0	0	0	0	343	
13	0	0	0	0	343	
14	0	0	0	0	342	
15	0	0	0	0	342	
0	0	0	0	0	342	
1	0	0	0	0	342	
2	0	0	0	0	342	
3	0	0	0	0	342	
4	0	0	0	0	341	
5	0	0	0	0	341	
6	0	0	0	0	341	
7	0	0	0	0	341	
8	0	0	0	0	340	
9	0	0	0	0	340	
10	0	0	0	0	340	
11	0	0	0	0	340	
12	0	0	0	0	340	
13	0	0	0	0	340	
14	0	0	0	0	339	
15	0	0	0	0	339	
0	0	0	0	0	339	
1	0	0	0	0	339	
2	0	0	0	0	339	
3	0	0	0	0	339	
4	0	0	0	0	339	
5	0	0	0	0	339	
6	0	0	0	0	339	
7	0	0	0	0	339	
8	0	0	0	0	338	
9	0	0	0	0	338	
10	0	0	0	0	338	
11	0	0	0	0	338	
12	0	0	0	0	338	
13	0	0	0	0	338	
14	0	0	0	0	338	
15	0	0	0	0	339	
0	0	0	0	0	338	
1	0	0	0	0	339	
2	0	0	0	0	339	
3	0	0	0	0	339	
4	0	0	0	0	339	
5	0	0	0	0	339	
6	0	0	0	0	338	
7	0	0	0	0	339	
8	0	0	0	0	338	
9	0	0	0	0	338	
10	0	0	0	0	338	
11	0	0	0	0	337	
12	0	0	0	0	337	
13	0	0	0	0	337	
14	0	0	0	0	336	
15	0	0	0	0	335	
0	0	0	0	0	335	
1	0	0	0	0	334	
2	0	0	0	0	333	
3	0	0	0	0	333	
4	0	0	0	0	332	
5	0	0	0	0	332	
6	0	0	0	0	332	
7	0	0	0	0	332	
8	0	0	0	0	332	
9	0	0	0	0	332	
10	0	0	0	0	332	
11	0	0	0	0	332	
12	0	0	0	0	331	
13	0	0	0	0	330	
14	0	0	0	0	330	
15	0	0	0	0	330	
0	0	0	0	0	329	
1	0	0	0	0	329	
2	0	0	0	0	329	
3	0	0	0	0	329	
4	0	0	0	0	329	
5	0	0	0	0	329	
6	0	0	0	0	329	
7	0	0	0	0	329	
8	0	0	0	0	329	
9	0	0	0	0	329	
10	0	0	0	0	329	
11	0	0	0	0	329	
12	0	0	0	0	328	
13	0	0	0	0	329	
14	0	0	0	0	328	
15	0	0	0	0	328	
0	0	0	0	0	328	
1	0	0	0	0	328	
2	0	0	0	0	328	
3	0	0	0	0	328	
4	0	0	0	0	329	
5	0	0	0	0	329	
6	0	0	0	0	329	
7	0	0	0	0	329	
