# OpenSignals Text File Format. Version 1
# {"20:19:07:00:81:AD": {"position": 0, "device": "bitalino_rev", "device name": "20:19:07:00:81:AD", "device connection": "BTH20:19:07:00:81:AD", "sampling rate": 10, "resolution": [4, 1, 1, 1, 1, 10], "firmware version": 1282, "comments": "", "keywords": "", "mode": 0, "sync interval": 2, "date": "2025-3-25", "time": "12:29:35.726", "channels": [1], "sensor": ["EDABITREV"], "label": ["A1"], "column": ["nSeq", "I1", "I2", "O1", "O2", "A1"], "special": [{}], "digital IO": [0, 0, 1, 1], "convertedValues": 0}}
# EndOfHeader
0	0	0	0	0	340	
1	0	0	0	0	339	
2	0	0	0	0	339	
3	0	0	0	0	339	
4	0	0	0	0	339	
5	0	0	0	0	338	
6	0	0	0	0	338	
7	0	0	0	0	337	
8	0	0	0	0	337	
9	0	0	0	0	337	
10	0	0	0	0	336	
11	0	0	0	0	336	
12	0	0	0	0	336	
13	0	0	0	0	335	
14	0	0	0	0	335	
15	0	0	0	0	335	
0	0	0	0	0	335	
1	0	0	0	0	334	
2	0	0	0	0	334	
3	0	0	0	0	334	
4	0	0	0	0	333	
5	0	0	0	0	333	
6	0	0	0	0	333	
7	0	0	0	0	332	
8	0	0	0	0	332	
9	0	0	0	0	332	
10	0	0	0	0	332	
11	0	0	0	0	331	
12	0	0	0	0	331	
13	0	0	0	0	330	
14	0	0	0	0	330	
15	0	0	0	0	329	
0	0	0	0	0	329	
1	0	0	0	0	329	
2	0	0	0	0	328	
3	0	0	0	0	328	
4	0	0	0	0	327	
5	0	0	0	0	327	
6	0	0	0	0	327	
7	0	0	0	0	327	
8	0	0	0	0	326	
9	0	0	0	0	326	
10	0	0	0	0	326	
11	0	0	0	0	325	
12	0	0	0	0	325	
13	0	0	0	0	324	
14	0	0	0	0	324	
15	0	0	0	0	324	
0	0	0	0	0	323	
1	0	0	0	0	323	
2	0	0	0	0	323	
3	0	0	0	0	322	
4	0	0	0	0	322	
5	0	0	0	0	321	
6	0	0	0	0	321	
7	0	0	0	0	321	
8	0	0	0	0	321	
9	0	0	0	0	320	
10	0	0	0	0	320	
11	0	0	0	0	319	
12	0	0	0	0	319	
13	0	0	0	0	319	
14	0	0	0	0	319	
15	0	0	0	0	318	
0	0	0	0	0	318	
1	0	0	0	0	317	
2	0	0	0	0	317	
3	0	0	0	0	317	
4	0	0	0	0	316	
5	0	0	0	0	316	
6	0	0	0	0	316	
7	0	0	0	0	315	
8	0	0	0	0	315	
9	0	0	0	0	315	
10	0	0	0	0	315	
11	0	0	0	0	314	
12	0	0	0	0	314	
13	0	0	0	0	313	
14	0	0	0	0	313	
15	0	0	0	0	312	
0	0	0	0	0	312	
1	0	0	0	0	312	
2	0	0	0	0	312	
3	0	0	0	0	311	
4	0	0	0	0	311	
5	0	0	0	0	310	
6	0	0	0	0	310	
7	0	0	0	0	310	
8	0	0	0	0	310	
9	0	0	0	0	309	
10	0	0	0	0	309	
11	0	0	0	0	308	
12	0	0	0	0	308	
13	0	0	0	0	307	
14	0	0	0	0	307	
15	0	0	0	0	307	
0	0	0	0	0	307	
1	0	0	0	0	306	
2	0	0	0	0	306	
3	0	0	0	0	305	
4	0	0	0	0	305	
5	0	0	0	0	305	
6	0	0	0	0	305	
7	0	0	0	0	304	
8	0	0	0	0	304	
9	0	0	0	0	304	
10	0	0	0	0	303	
11	0	0	0	0	303	
12	0	0	0	0	303	
13	0	0	0	0	302	
14	0	0	0	0	302	
15	0	0	0	0	301	
0	0	0	0	0	301	
1	0	0	0	0	301	
2	0	0	0	0	300	
3	0	0	0	0	300	
4	0	0	0	0	300	
5	0	0	0	0	299	
6	0	0	0	0	299	
7	0	0	0	0	298	
8	0	0	0	0	298	
9	0	0	0	0	297	
10	0	0	0	0	297	
11	0	0	0	0	297	
12	0	0	0	0	297	
13	0	0	0	0	296	
14	0	0	0	0	296	
15	0	0	0	0	295	
0	0	0	0	0	295	
1	0	0	0	0	295	
2	0	0	0	0	295	
3	0	0	0	0	294	
4	0	0	0	0	294	
5	0	0	0	0	293	
6	0	0	0	0	293	
7	0	0	0	0	292	
8	0	0	0	0	292	
9	0	0	0	0	291	
10	0	0	0	0	291	
11	0	0	0	0	291	
12	0	0	0	0	291	
13	0	0	0	0	290	
14	0	0	0	0	290	
15	0	0	0	0	289	
0	0	0	0	0	289	
1	0	0	0	0	289	
2	0	0	0	0	288	
3	0	0	0	0	288	
4	0	0	0	0	287	
5	0	0	0	0	287	
6	0	0	0	0	287	
7	0	0	0	0	287	
8	0	0	0	0	286	
9	0	0	0	0	286	
10	0	0	0	0	286	
11	0	0	0	0	285	
12	0	0	0	0	285	
13	0	0	0	0	284	
14	0	0	0	0	284	
15	0	0	0	0	284	
0	0	0	0	0	284	
1	0	0	0	0	283	
2	0	0	0	0	283	
3	0	0	0	0	283	
4	0	0	0	0	282	
5	0	0	0	0	282	
6	0	0	0	0	281	
7	0	0	0	0	281	
8	0	0	0	0	281	
9	0	0	0	0	280	
10	0	0	0	0	280	
11	0	0	0	0	280	
12	0	0	0	0	280	
13	0	0	0	0	279	
14	0	0	0	0	279	
15	0	0	0	0	278	
0	0	0	0	0	278	
1	0	0	0	0	278	
2	0	0	0	0	277	
3	0	0	0	0	277	
4	0	0	0	0	277	
5	0	0	0	0	276	
6	0	0	0	0	276	
7	0	0	0	0	275	
8	0	0	0	0	275	
9	0	0	0	0	275	
10	0	0	0	0	275	
11	0	0	0	0	274	
12	0	0	0	0	274	
13	0	0	0	0	273	
14	0	0	0	0	273	
15	0	0	0	0	273	
0	0	0	0	0	272	
1	0	0	0	0	272	
2	0	0	0	0	272	
3	0	0	0	0	271	
4	0	0	0	0	271	
5	0	0	0	0	271	
6	0	0	0	0	271	
7	0	0	0	0	270	
8	0	0	0	0	270	
9	0	0	0	0	269	
10	0	0	0	0	269	
11	0	0	0	0	269	
12	0	0	0	0	268	
13	0	0	0	0	268	
14	0	0	0	0	268	
15	0	0	0	0	267	
0	0	0	0	0	267	
1	0	0	0	0	267	
2	0	0	0	0	266	
3	0	0	0	0	266	
4	0	0	0	0	266	
5	0	0	0	0	265	
6	0	0	0	0	265	
7	0	0	0	0	265	
8	0	0	0	0	264	
9	0	0	0	0	264	
10	0	0	0	0	263	
11	0	0	0	0	263	
12	0	0	0	0	263	
13	0	0	0	0	263	
14	0	0	0	0	263	
15	0	0	0	0	262	
0	0	0	0	0	262	
1	0	0	0	0	262	
2	0	0	0	0	261	
3	0	0	0	0	261	
4	0	0	0	0	260	
5	0	0	0	0	260	
6	0	0	0	0	260	
7	0	0	0	0	259	
8	0	0	0	0	259	
9	0	0	0	0	259	
10	0	0	0	0	259	
11	0	0	0	0	258	
12	0	0	0	0	258	
13	0	0	0	0	258	
14	0	0	0	0	258	
15	0	0	0	0	257	
0	0	0	0	0	257	
1	0	0	0	0	257	
2	0	0	0	0	256	
3	0	0	0	0	256	
4	0	0	0	0	256	
5	0	0	0	0	255	
6	0	0	0	0	255	
7	0	0	0	0	255	
8	0	0	0	0	255	
9	0	0	0	0	254	
10	0	0	0	0	254	
11	0	0	0	0	254	
12	0	0	0	0	254	
13	0	0	0	0	253	
14	0	0	0	0	253	
15	0	0	0	0	252	
0	0	0	0	0	252	
1	0	0	0	0	252	
2	0	0	0	0	252	
3	0	0	0	0	251	
4	0	0	0	0	251	
5	0	0	0	0	251	
6	0	0	0	0	251	
7	0	0	0	0	250	
8	0	0	0	0	250	
9	0	0	0	0	249	
10	0	0	0	0	249	
11	0	0	0	0	249	
12	0	0	0	0	249	
13	0	0	0	0	248	
14	0	0	0	0	248	
15	0	0	0	0	248	
0	0	0	0	0	248	
1	0	0	0	0	247	
2	0	0	0	0	247	
3	0	0	0	0	247	
4	0	0	0	0	247	
5	0	0	0	0	247	
6	0	0	0	0	247	
7	0	0	0	0	246	
8	0	0	0	0	246	
9	0	0	0	0	246	
10	0	0	0	0	245	
11	0	0	0	0	245	
12	0	0	0	0	245	
13	0	0	0	0	244	
14	0	0	0	0	244	
15	0	0	0	0	244	
0	0	0	0	0	243	
1	0	0	0	0	243	
2	0	0	0	0	243	
3	0	0	0	0	243	
4	0	0	0	0	242	
5	0	0	0	0	242	
6	0	0	0	0	241	
7	0	0	0	0	241	
8	0	0	0	0	241	
9	0	0	0	0	240	
10	0	0	0	0	240	
11	0	0	0	0	240	
12	0	0	0	0	240	
13	0	0	0	0	239	
14	0	0	0	0	239	
15	0	0	0	0	239	
0	0	0	0	0	238	
1	0	0	0	0	238	
2	0	0	0	0	238	
3	0	0	0	0	237	
4	0	0	0	0	237	
5	0	0	0	0	237	
6	0	0	0	0	236	
7	0	0	0	0	236	
8	0	0	0	0	236	
9	0	0	0	0	235	
10	0	0	0	0	235	
11	0	0	0	0	235	
12	0	0	0	0	235	
13	0	0	0	0	234	
14	0	0	0	0	234	
15	0	0	0	0	233	
0	0	0	0	0	233	
1	0	0	0	0	233	
2	0	0	0	0	233	
3	0	0	0	0	232	
4	0	0	0	0	232	
5	0	0	0	0	232	
6	0	0	0	0	231	
7	0	0	0	0	231	
8	0	0	0	0	231	
9	0	0	0	0	231	
10	0	0	0	0	231	
11	0	0	0	0	230	
12	0	0	0	0	230	
13	0	0	0	0	230	
14	0	0	0	0	229	
15	0	0	0	0	229	
0	0	0	0	0	229	
1	0	0	0	0	228	
2	0	0	0	0	228	
3	0	0	0	0	228	
4	0	0	0	0	228	
5	0	0	0	0	227	
6	0	0	0	0	227	
7	0	0	0	0	227	
8	0	0	0	0	227	
9	0	0	0	0	226	
10	0	0	0	0	226	
11	0	0	0	0	225	
12	0	0	0	0	225	
13	0	0	0	0	225	
14	0	0	0	0	225	
15	0	0	0	0	224	
0	0	0	0	0	224	
1	0	0	0	0	224	
2	0	0	0	0	224	
3	0	0	0	0	224	
4	0	0	0	0	223	
5	0	0	0	0	223	
6	0	0	0	0	223	
7	0	0	0	0	222	
8	0	0	0	0	222	
9	0	0	0	0	222	
10	0	0	0	0	222	
11	0	0	0	0	221	
12	0	0	0	0	221	
13	0	0	0	0	221	
14	0	0	0	0	221	
15	0	0	0	0	220	
0	0	0	0	0	220	
1	0	0	0	0	220	
2	0	0	0	0	220	
3	0	0	0	0	219	
4	0	0	0	0	219	
5	0	0	0	0	219	
6	0	0	0	0	219	
7	0	0	0	0	218	
8	0	0	0	0	218	
9	0	0	0	0	217	
10	0	0	0	0	217	
11	0	0	0	0	217	
12	0	0	0	0	217	
13	0	0	0	0	216	
14	0	0	0	0	216	
15	0	0	0	0	216	
0	0	0	0	0	216	
1	0	0	0	0	216	
2	0	0	0	0	216	
3	0	0	0	0	215	
4	0	0	0	0	215	
5	0	0	0	0	215	
6	0	0	0	0	214	
7	0	0	0	0	214	
8	0	0	0	0	214	
9	0	0	0	0	213	
10	0	0	0	0	213	
11	0	0	0	0	213	
12	0	0	0	0	213	
13	0	0	0	0	212	
14	0	0	0	0	212	
15	0	0	0	0	211	
0	0	0	0	0	211	
1	0	0	0	0	211	
2	0	0	0	0	211	
3	0	0	0	0	211	
4	0	0	0	0	210	
5	0	0	0	0	210	
6	0	0	0	0	210	
7	0	0	0	0	209	
8	0	0	0	0	209	
9	0	0	0	0	209	
10	0	0	0	0	209	
11	0	0	0	0	208	
12	0	0	0	0	208	
13	0	0	0	0	208	
14	0	0	0	0	207	
15	0	0	0	0	207	
0	0	0	0	0	207	
1	0	0	0	0	207	
2	0	0	0	0	207	
3	0	0	0	0	206	
4	0	0	0	0	206	
5	0	0	0	0	206	
6	0	0	0	0	206	
7	0	0	0	0	205	
8	0	0	0	0	205	
9	0	0	0	0	205	
10	0	0	0	0	205	
11	0	0	0	0	204	
12	0	0	0	0	204	
13	0	0	0	0	204	
14	0	0	0	0	204	
15	0	0	0	0	203	
0	0	0	0	0	203	
1	0	0	0	0	203	
2	0	0	0	0	203	
3	0	0	0	0	202	
4	0	0	0	0	202	
5	0	0	0	0	202	
6	0	0	0	0	201	
7	0	0	0	0	201	
8	0	0	0	0	201	
9	0	0	0	0	200	
10	0	0	0	0	200	
11	0	0	0	0	200	
12	0	0	0	0	200	
13	0	0	0	0	199	
14	0	0	0	0	199	
15	0	0	0	0	199	
0	0	0	0	0	199	
1	0	0	0	0	199	
2	0	0	0	0	199	
3	0	0	0	0	198	
4	0	0	0	0	198	
5	0	0	0	0	197	
6	0	0	0	0	197	
7	0	0	0	0	197	
8	0	0	0	0	197	
9	0	0	0	0	196	
10	0	0	0	0	196	
11	0	0	0	0	196	
12	0	0	0	0	196	
13	0	0	0	0	195	
14	0	0	0	0	195	
15	0	0	0	0	195	
0	0	0	0	0	195	
1	0	0	0	0	194	
2	0	0	0	0	194	
3	0	0	0	0	194	
4	0	0	0	0	194	
5	0	0	0	0	193	
6	0	0	0	0	193	
7	0	0	0	0	193	
8	0	0	0	0	193	
9	0	0	0	0	192	
10	0	0	0	0	192	
11	0	0	0	0	192	
12	0	0	0	0	192	
13	0	0	0	0	191	
14	0	0	0	0	191	
15	0	0	0	0	191	
0	0	0	0	0	191	
1	0	0	0	0	191	
2	0	0	0	0	190	
3	0	0	0	0	190	
4	0	0	0	0	190	
5	0	0	0	0	189	
6	0	0	0	0	189	
7	0	0	0	0	189	
8	0	0	0	0	188	
9	0	0	0	0	188	
10	0	0	0	0	188	
11	0	0	0	0	188	
12	0	0	0	0	188	
13	0	0	0	0	187	
14	0	0	0	0	187	
15	0	0	0	0	187	
0	0	0	0	0	187	
1	0	0	0	0	186	
2	0	0	0	0	186	
3	0	0	0	0	186	
4	0	0	0	0	186	
5	0	0	0	0	185	
6	0	0	0	0	185	
7	0	0	0	0	185	
8	0	0	0	0	185	
9	0	0	0	0	185	
10	0	0	0	0	186	
11	0	0	0	0	186	
12	0	0	0	0	186	
13	0	0	0	0	186	
14	0	0	0	0	186	
15	0	0	0	0	186	
0	0	0	0	0	187	
1	0	0	0	0	187	
2	0	0	0	0	187	
3	0	0	0	0	187	
4	0	0	0	0	188	
5	0	0	0	0	188	
6	0	0	0	0	188	
7	0	0	0	0	188	
8	0	0	0	0	189	
9	0	0	0	0	189	
10	0	0	0	0	189	
11	0	0	0	0	189	
12	0	0	0	0	189	
13	0	0	0	0	189	
14	0	0	0	0	189	
15	0	0	0	0	189	
0	0	0	0	0	189	
1	0	0	0	0	188	
2	0	0	0	0	188	
3	0	0	0	0	188	
4	0	0	0	0	188	
5	0	0	0	0	188	
6	0	0	0	0	188	
7	0	0	0	0	187	
8	0	0	0	0	187	
9	0	0	0	0	187	
10	0	0	0	0	187	
11	0	0	0	0	186	
12	0	0	0	0	186	
13	0	0	0	0	186	
14	0	0	0	0	185	
15	0	0	0	0	185	
0	0	0	0	0	185	
1	0	0	0	0	185	
2	0	0	0	0	185	
3	0	0	0	0	184	
4	0	0	0	0	184	
5	0	0	0	0	184	
6	0	0	0	0	184	
7	0	0	0	0	184	
8	0	0	0	0	184	
9	0	0	0	0	183	
10	0	0	0	0	183	
11	0	0	0	0	183	
12	0	0	0	0	183	
13	0	0	0	0	182	
14	0	0	0	0	182	
15	0	0	0	0	182	
0	0	0	0	0	182	
1	0	0	0	0	182	
2	0	0	0	0	182	
3	0	0	0	0	181	
4	0	0	0	0	181	
5	0	0	0	0	181	
6	0	0	0	0	181	
7	0	0	0	0	180	
8	0	0	0	0	180	
9	0	0	0	0	180	
10	0	0	0	0	180	
11	0	0	0	0	180	
12	0	0	0	0	180	
13	0	0	0	0	180	
14	0	0	0	0	180	
15	0	0	0	0	180	
0	0	0	0	0	180	
1	0	0	0	0	179	
2	0	0	0	0	179	
3	0	0	0	0	179	
4	0	0	0	0	179	
5	0	0	0	0	179	
6	0	0	0	0	179	
7	0	0	0	0	179	
8	0	0	0	0	179	
9	0	0	0	0	179	
10	0	0	0	0	179	
11	0	0	0	0	179	
12	0	0	0	0	179	
13	0	0	0	0	179	
14	0	0	0	0	179	
15	0	0	0	0	179	
0	0	0	0	0	180	
1	0	0	0	0	180	
2	0	0	0	0	180	
3	0	0	0	0	180	
4	0	0	0	0	181	
5	0	0	0	0	181	
6	0	0	0	0	181	
7	0	0	0	0	181	
8	0	0	0	0	181	
9	0	0	0	0	181	
10	0	0	0	0	181	
11	0	0	0	0	181	
12	0	0	0	0	181	
13	0	0	0	0	181	
14	0	0	0	0	181	
15	0	0	0	0	181	
0	0	0	0	0	181	
1	0	0	0	0	181	
2	0	0	0	0	181	
3	0	0	0	0	180	
4	0	0	0	0	181	
5	0	0	0	0	180	
6	0	0	0	0	180	
7	0	0	0	0	180	
8	0	0	0	0	180	
9	0	0	0	0	180	
10	0	0	0	0	180	
11	0	0	0	0	180	
12	0	0	0	0	180	
13	0	0	0	0	179	
14	0	0	0	0	179	
15	0	0	0	0	179	
0	0	0	0	0	179	
1	0	0	0	0	179	
2	0	0	0	0	179	
3	0	0	0	0	179	
4	0	0	0	0	179	
5	0	0	0	0	178	
6	0	0	0	0	178	
7	0	0	0	0	178	
8	0	0	0	0	178	
9	0	0	0	0	178	
10	0	0	0	0	178	
11	0	0	0	0	177	
12	0	0	0	0	177	
13	0	0	0	0	177	
14	0	0	0	0	177	
15	0	0	0	0	177	
0	0	0	0	0	177	
1	0	0	0	0	177	
2	0	0	0	0	177	
3	0	0	0	0	176	
4	0	0	0	0	177	
5	0	0	0	0	176	
6	0	0	0	0	176	
7	0	0	0	0	176	
8	0	0	0	0	176	
9	0	0	0	0	176	
10	0	0	0	0	176	
11	0	0	0	0	176	
12	0	0	0	0	176	
13	0	0	0	0	175	
14	0	0	0	0	175	
15	0	0	0	0	175	
0	0	0	0	0	175	
1	0	0	0	0	175	
2	0	0	0	0	175	
3	0	0	0	0	175	
4	0	0	0	0	175	
5	0	0	0	0	174	
6	0	0	0	0	175	
7	0	0	0	0	174	
8	0	0	0	0	174	
9	0	0	0	0	174	
10	0	0	0	0	174	
11	0	0	0	0	174	
12	0	0	0	0	174	
13	0	0	0	0	173	
14	0	0	0	0	173	
15	0	0	0	0	173	
0	0	0	0	0	173	
1	0	0	0	0	173	
2	0	0	0	0	173	
3	0	0	0	0	172	
4	0	0	0	0	172	
5	0	0	0	0	172	
6	0	0	0	0	172	
7	0	0	0	0	172	
8	0	0	0	0	172	
9	0	0	0	0	173	
10	0	0	0	0	173	
11	0	0	0	0	173	
12	0	0	0	0	174	
13	0	0	0	0	174	
14	0	0	0	0	174	
15	0	0	0	0	174	
0	0	0	0	0	175	
1	0	0	0	0	175	
2	0	0	0	0	175	
3	0	0	0	0	175	
4	0	0	0	0	176	
5	0	0	0	0	176	
6	0	0	0	0	177	
7	0	0	0	0	177	
8	0	0	0	0	177	
9	0	0	0	0	178	
10	0	0	0	0	179	
11	0	0	0	0	179	
12	0	0	0	0	180	
13	0	0	0	0	181	
14	0	0	0	0	182	
15	0	0	0	0	182	
0	0	0	0	0	183	
1	0	0	0	0	183	
2	0	0	0	0	183	
3	0	0	0	0	183	
4	0	0	0	0	184	
5	0	0	0	0	184	
6	0	0	0	0	184	
7	0	0	0	0	184	
8	0	0	0	0	184	
9	0	0	0	0	184	
10	0	0	0	0	184	
11	0	0	0	0	183	
12	0	0	0	0	183	
13	0	0	0	0	183	
14	0	0	0	0	183	
15	0	0	0	0	183	
0	0	0	0	0	183	
1	0	0	0	0	182	
2	0	0	0	0	182	
3	0	0	0	0	182	
4	0	0	0	0	182	
5	0	0	0	0	182	
6	0	0	0	0	181	
7	0	0	0	0	181	
8	0	0	0	0	181	
9	0	0	0	0	181	
10	0	0	0	0	181	
11	0	0	0	0	180	
12	0	0	0	0	181	
13	0	0	0	0	180	
14	0	0	0	0	180	
15	0	0	0	0	180	
0	0	0	0	0	180	
1	0	0	0	0	180	
2	0	0	0	0	180	
3	0	0	0	0	179	
4	0	0	0	0	179	
5	0	0	0	0	179	
6	0	0	0	0	179	
7	0	0	0	0	179	
8	0	0	0	0	179	
9	0	0	0	0	179	
10	0	0	0	0	179	
11	0	0	0	0	179	
12	0	0	0	0	179	
13	0	0	0	0	179	
14	0	0	0	0	179	
15	0	0	0	0	178	
0	0	0	0	0	178	
1	0	0	0	0	178	
2	0	0	0	0	178	
3	0	0	0	0	178	
4	0	0	0	0	178	
5	0	0	0	0	177	
6	0	0	0	0	177	
7	0	0	0	0	177	
8	0	0	0	0	177	
9	0	0	0	0	177	
10	0	0	0	0	177	
11	0	0	0	0	177	
12	0	0	0	0	177	
13	0	0	0	0	176	
14	0	0	0	0	176	
15	0	0	0	0	176	
0	0	0	0	0	176	
1	0	0	0	0	176	
2	0	0	0	0	176	
3	0	0	0	0	176	
4	0	0	0	0	176	
5	0	0	0	0	176	
6	0	0	0	0	176	
7	0	0	0	0	175	
8	0	0	0	0	175	
9	0	0	0	0	175	
10	0	0	0	0	175	
11	0	0	0	0	175	
12	0	0	0	0	175	
13	0	0	0	0	175	
14	0	0	0	0	175	
15	0	0	0	0	174	
0	0	0	0	0	175	
1	0	0	0	0	174	
2	0	0	0	0	175	
3	0	0	0	0	174	
4	0	0	0	0	174	
5	0	0	0	0	174	
6	0	0	0	0	174	
7	0	0	0	0	174	
8	0	0	0	0	174	
9	0	0	0	0	174	
10	0	0	0	0	175	
11	0	0	0	0	175	
12	0	0	0	0	175	
13	0	0	0	0	175	
14	0	0	0	0	176	
15	0	0	0	0	176	
0	0	0	0	0	177	
1	0	0	0	0	177	
2	0	0	0	0	177	
3	0	0	0	0	178	
4	0	0	0	0	179	
5	0	0	0	0	179	
6	0	0	0	0	179	
7	0	0	0	0	180	
8	0	0	0	0	180	
9	0	0	0	0	180	
10	0	0	0	0	181	
11	0	0	0	0	181	
12	0	0	0	0	181	
13	0	0	0	0	181	
14	0	0	0	0	181	
15	0	0	0	0	181	
0	0	0	0	0	181	
1	0	0	0	0	181	
2	0	0	0	0	181	
3	0	0	0	0	181	
4	0	0	0	0	181	
5	0	0	0	0	180	
6	0	0	0	0	181	
7	0	0	0	0	181	
8	0	0	0	0	182	
9	0	0	0	0	183	
10	0	0	0	0	185	
11	0	0	0	0	187	
12	0	0	0	0	189	
13	0	0	0	0	192	
14	0	0	0	0	195	
15	0	0	0	0	198	
0	0	0	0	0	201	
1	0	0	0	0	204	
2	0	0	0	0	206	
3	0	0	0	0	207	
4	0	0	0	0	209	
5	0	0	0	0	210	
6	0	0	0	0	211	
7	0	0	0	0	211	
8	0	0	0	0	212	
9	0	0	0	0	212	
10	0	0	0	0	213	
11	0	0	0	0	213	
12	0	0	0	0	213	
13	0	0	0	0	214	
14	0	0	0	0	214	
15	0	0	0	0	214	
0	0	0	0	0	214	
1	0	0	0	0	214	
2	0	0	0	0	214	
3	0	0	0	0	213	
4	0	0	0	0	213	
5	0	0	0	0	212	
6	0	0	0	0	212	
7	0	0	0	0	211	
8	0	0	0	0	211	
9	0	0	0	0	210	
10	0	0	0	0	210	
11	0	0	0	0	209	
12	0	0	0	0	209	
13	0	0	0	0	208	
14	0	0	0	0	208	
15	0	0	0	0	208	
0	0	0	0	0	207	
1	0	0	0	0	207	
2	0	0	0	0	207	
3	0	0	0	0	207	
4	0	0	0	0	207	
5	0	0	0	0	206	
6	0	0	0	0	206	
7	0	0	0	0	206	
8	0	0	0	0	206	
9	0	0	0	0	206	
10	0	0	0	0	206	
11	0	0	0	0	206	
12	0	0	0	0	206	
13	0	0	0	0	206	
14	0	0	0	0	206	
15	0	0	0	0	205	
0	0	0	0	0	206	
1	0	0	0	0	205	
2	0	0	0	0	205	
3	0	0	0	0	205	
4	0	0	0	0	206	
5	0	0	0	0	206	
6	0	0	0	0	206	
7	0	0	0	0	206	
8	0	0	0	0	207	
9	0	0	0	0	207	
10	0	0	0	0	207	
11	0	0	0	0	208	
12	0	0	0	0	209	
13	0	0	0	0	209	
14	0	0	0	0	211	
15	0	0	0	0	212	
0	0	0	0	0	215	
1	0	0	0	0	217	
2	0	0	0	0	221	
3	0	0	0	0	224	
4	0	0	0	0	228	
5	0	0	0	0	232	
6	0	0	0	0	237	
7	0	0	0	0	240	
8	0	0	0	0	243	
9	0	0	0	0	246	
10	0	0	0	0	248	
11	0	0	0	0	249	
12	0	0	0	0	251	
13	0	0	0	0	252	
14	0	0	0	0	252	
15	0	0	0	0	252	
0	0	0	0	0	252	
1	0	0	0	0	252	
2	0	0	0	0	252	
3	0	0	0	0	251	
4	0	0	0	0	251	
5	0	0	0	0	250	
6	0	0	0	0	249	
7	0	0	0	0	248	
8	0	0	0	0	248	
9	0	0	0	0	247	
10	0	0	0	0	246	
11	0	0	0	0	244	
12	0	0	0	0	243	
13	0	0	0	0	242	
14	0	0	0	0	241	
15	0	0	0	0	240	
0	0	0	0	0	239	
1	0	0	0	0	238	
2	0	0	0	0	238	
3	0	0	0	0	236	
4	0	0	0	0	236	
5	0	0	0	0	235	
6	0	0	0	0	235	
7	0	0	0	0	234	
8	0	0	0	0	233	
9	0	0	0	0	233	
10	0	0	0	0	232	
11	0	0	0	0	232	
12	0	0	0	0	232	
13	0	0	0	0	231	
14	0	0	0	0	231	
15	0	0	0	0	231	
0	0	0	0	0	231	
1	0	0	0	0	231	
2	0	0	0	0	231	
3	0	0	0	0	231	
4	0	0	0	0	231	
5	0	0	0	0	230	
6	0	0	0	0	231	
7	0	0	0	0	230	
8	0	0	0	0	230	
9	0	0	0	0	230	
10	0	0	0	0	230	
11	0	0	0	0	230	
12	0	0	0	0	230	
13	0	0	0	0	230	
14	0	0	0	0	230	
15	0	0	0	0	230	
0	0	0	0	0	230	
1	0	0	0	0	230	
2	0	0	0	0	230	
3	0	0	0	0	230	
4	0	0	0	0	231	
5	0	0	0	0	230	
6	0	0	0	0	231	
7	0	0	0	0	231	
8	0	0	0	0	231	
9	0	0	0	0	231	
10	0	0	0	0	231	
11	0	0	0	0	231	
12	0	0	0	0	231	
13	0	0	0	0	231	
14	0	0	0	0	231	
15	0	0	0	0	231	
0	0	0	0	0	231	
1	0	0	0	0	231	
2	0	0	0	0	232	
3	0	0	0	0	232	
4	0	0	0	0	232	
5	0	0	0	0	232	
6	0	0	0	0	232	
7	0	0	0	0	232	
8	0	0	0	0	232	
9	0	0	0	0	232	
10	0	0	0	0	232	
11	0	0	0	0	232	
12	0	0	0	0	233	
13	0	0	0	0	233	
14	0	0	0	0	233	
15	0	0	0	0	233	
0	0	0	0	0	233	
1	0	0	0	0	233	
2	0	0	0	0	234	
3	0	0	0	0	234	
4	0	0	0	0	234	
5	0	0	0	0	234	
6	0	0	0	0	235	
7	0	0	0	0	235	
8	0	0	0	0	235	
9	0	0	0	0	235	
10	0	0	0	0	236	
11	0	0	0	0	236	
12	0	0	0	0	236	
13	0	0	0	0	236	
14	0	0	0	0	236	
15	0	0	0	0	236	
0	0	0	0	0	237	
1	0	0	0	0	237	
2	0	0	0	0	237	
3	0	0	0	0	238	
4	0	0	0	0	238	
5	0	0	0	0	238	
6	0	0	0	0	238	
7	0	0	0	0	238	
8	0	0	0	0	239	
9	0	0	0	0	239	
10	0	0	0	0	239	
11	0	0	0	0	239	
12	0	0	0	0	239	
13	0	0	0	0	239	
14	0	0	0	0	239	
15	0	0	0	0	239	
0	0	0	0	0	239	
1	0	0	0	0	239	
2	0	0	0	0	239	
3	0	0	0	0	239	
4	0	0	0	0	240	
5	0	0	0	0	239	
6	0	0	0	0	240	
7	0	0	0	0	240	
8	0	0	0	0	240	
9	0	0	0	0	240	
10	0	0	0	0	240	
11	0	0	0	0	240	
12	0	0	0	0	240	
13	0	0	0	0	240	
14	0	0	0	0	240	
15	0	0	0	0	240	
0	0	0	0	0	240	
1	0	0	0	0	240	
2	0	0	0	0	241	
3	0	0	0	0	241	
4	0	0	0	0	241	
5	0	0	0	0	241	
6	0	0	0	0	241	
7	0	0	0	0	241	
8	0	0	0	0	241	
9	0	0	0	0	241	
10	0	0	0	0	242	
11	0	0	0	0	242	
12	0	0	0	0	242	
13	0	0	0	0	242	
14	0	0	0	0	242	
15	0	0	0	0	242	
0	0	0	0	0	242	
1	0	0	0	0	242	
2	0	0	0	0	243	
3	0	0	0	0	243	
4	0	0	0	0	243	
5	0	0	0	0	243	
6	0	0	0	0	243	
7	0	0	0	0	243	
8	0	0	0	0	243	
9	0	0	0	0	243	
10	0	0	0	0	243	
11	0	0	0	0	243	
12	0	0	0	0	244	
13	0	0	0	0	244	
14	0	0	0	0	244	
15	0	0	0	0	244	
0	0	0	0	0	244	
1	0	0	0	0	244	
2	0	0	0	0	245	
3	0	0	0	0	245	
4	0	0	0	0	246	
5	0	0	0	0	246	
6	0	0	0	0	246	
7	0	0	0	0	247	
8	0	0	0	0	247	
9	0	0	0	0	248	
10	0	0	0	0	249	
11	0	0	0	0	250	
12	0	0	0	0	251	
13	0	0	0	0	251	
14	0	0	0	0	252	
15	0	0	0	0	253	
0	0	0	0	0	254	
1	0	0	0	0	255	
2	0	0	0	0	255	
3	0	0	0	0	256	
4	0	0	0	0	256	
5	0	0	0	0	257	
6	0	0	0	0	257	
7	0	0	0	0	258	
8	0	0	0	0	258	
9	0	0	0	0	259	
10	0	0	0	0	259	
11	0	0	0	0	259	
12	0	0	0	0	259	
13	0	0	0	0	259	
14	0	0	0	0	259	
15	0	0	0	0	259	
0	0	0	0	0	259	
1	0	0	0	0	259	
2	0	0	0	0	260	
3	0	0	0	0	259	
4	0	0	0	0	260	
5	0	0	0	0	259	
6	0	0	0	0	260	
7	0	0	0	0	259	
8	0	0	0	0	259	
9	0	0	0	0	259	
10	0	0	0	0	259	
11	0	0	0	0	259	
12	0	0	0	0	259	
13	0	0	0	0	259	
14	0	0	0	0	259	
15	0	0	0	0	259	
0	0	0	0	0	259	
1	0	0	0	0	259	
2	0	0	0	0	259	
3	0	0	0	0	259	
4	0	0	0	0	259	
5	0	0	0	0	260	
6	0	0	0	0	261	
7	0	0	0	0	263	
8	0	0	0	0	264	
9	0	0	0	0	267	
10	0	0	0	0	269	
11	0	0	0	0	272	
12	0	0	0	0	276	
13	0	0	0	0	279	
14	0	0	0	0	283	
15	0	0	0	0	287	
0	0	0	0	0	290	
1	0	0	0	0	293	
2	0	0	0	0	296	
3	0	0	0	0	298	
4	0	0	0	0	300	
5	0	0	0	0	301	
6	0	0	0	0	302	
7	0	0	0	0	303	
8	0	0	0	0	303	
9	0	0	0	0	303	
10	0	0	0	0	303	
11	0	0	0	0	303	
12	0	0	0	0	303	
13	0	0	0	0	302	
14	0	0	0	0	302	
15	0	0	0	0	301	
0	0	0	0	0	300	
1	0	0	0	0	299	
2	0	0	0	0	298	
3	0	0	0	0	297	
4	0	0	0	0	296	
5	0	0	0	0	295	
6	0	0	0	0	294	
7	0	0	0	0	293	
8	0	0	0	0	292	
9	0	0	0	0	291	
10	0	0	0	0	291	
11	0	0	0	0	289	
12	0	0	0	0	289	
13	0	0	0	0	288	
14	0	0	0	0	287	
15	0	0	0	0	287	
0	0	0	0	0	287	
1	0	0	0	0	286	
2	0	0	0	0	286	
3	0	0	0	0	286	
4	0	0	0	0	286	
5	0	0	0	0	285	
6	0	0	0	0	285	
7	0	0	0	0	285	
8	0	0	0	0	285	
9	0	0	0	0	285	
10	0	0	0	0	286	
11	0	0	0	0	286	
12	0	0	0	0	286	
13	0	0	0	0	286	
14	0	0	0	0	286	
15	0	0	0	0	286	
0	0	0	0	0	287	
1	0	0	0	0	287	
2	0	0	0	0	287	
3	0	0	0	0	287	
4	0	0	0	0	287	
5	0	0	0	0	287	
6	0	0	0	0	287	
7	0	0	0	0	287	
8	0	0	0	0	287	
9	0	0	0	0	287	
10	0	0	0	0	287	
11	0	0	0	0	287	
12	0	0	0	0	287	
13	0	0	0	0	287	
14	0	0	0	0	287	
15	0	0	0	0	287	
0	0	0	0	0	287	
1	0	0	0	0	287	
2	0	0	0	0	287	
3	0	0	0	0	287	
4	0	0	0	0	287	
5	0	0	0	0	287	
6	0	0	0	0	287	
7	0	0	0	0	287	
8	0	0	0	0	287	
9	0	0	0	0	287	
10	0	0	0	0	287	
11	0	0	0	0	287	
12	0	0	0	0	287	
13	0	0	0	0	287	
14	0	0	0	0	288	
15	0	0	0	0	288	
0	0	0	0	0	288	
1	0	0	0	0	289	
2	0	0	0	0	290	
3	0	0	0	0	290	
4	0	0	0	0	291	
5	0	0	0	0	292	
6	0	0	0	0	293	
7	0	0	0	0	294	
8	0	0	0	0	295	
9	0	0	0	0	295	
10	0	0	0	0	296	
11	0	0	0	0	297	
12	0	0	0	0	298	
13	0	0	0	0	299	
14	0	0	0	0	299	
15	0	0	0	0	299	
0	0	0	0	0	300	
1	0	0	0	0	300	
2	0	0	0	0	300	
3	0	0	0	0	300	
4	0	0	0	0	300	
5	0	0	0	0	300	
6	0	0	0	0	300	
7	0	0	0	0	300	
8	0	0	0	0	300	
9	0	0	0	0	300	
10	0	0	0	0	300	
11	0	0	0	0	300	
12	0	0	0	0	300	
13	0	0	0	0	299	
14	0	0	0	0	299	
15	0	0	0	0	299	
0	0	0	0	0	299	
1	0	0	0	0	298	
2	0	0	0	0	299	
3	0	0	0	0	299	
4	0	0	0	0	299	
5	0	0	0	0	299	
6	0	0	0	0	299	
7	0	0	0	0	299	
8	0	0	0	0	299	
9	0	0	0	0	299	
10	0	0	0	0	300	
11	0	0	0	0	300	
12	0	0	0	0	300	
13	0	0	0	0	300	
14	0	0	0	0	300	
15	0	0	0	0	300	
0	0	0	0	0	300	
1	0	0	0	0	300	
2	0	0	0	0	300	
3	0	0	0	0	300	
4	0	0	0	0	300	
5	0	0	0	0	300	
6	0	0	0	0	300	
7	0	0	0	0	300	
8	0	0	0	0	300	
9	0	0	0	0	300	
10	0	0	0	0	300	
11	0	0	0	0	300	
12	0	0	0	0	300	
13	0	0	0	0	300	
14	0	0	0	0	300	
15	0	0	0	0	300	
0	0	0	0	0	300	
1	0	0	0	0	300	
2	0	0	0	0	300	
3	0	0	0	0	300	
4	0	0	0	0	300	
5	0	0	0	0	300	
6	0	0	0	0	300	
7	0	0	0	0	300	
8	0	0	0	0	300	
9	0	0	0	0	300	
10	0	0	0	0	300	
11	0	0	0	0	300	
12	0	0	0	0	300	
13	0	0	0	0	300	
14	0	0	0	0	300	
15	0	0	0	0	300	
0	0	0	0	0	301	
1	0	0	0	0	301	
2	0	0	0	0	301	
3	0	0	0	0	301	
4	0	0	0	0	301	
5	0	0	0	0	301	
6	0	0	0	0	301	
7	0	0	0	0	301	
8	0	0	0	0	302	
9	0	0	0	0	302	
10	0	0	0	0	303	
11	0	0	0	0	303	
12	0	0	0	0	304	
13	0	0	0	0	304	
14	0	0	0	0	304	
15	0	0	0	0	305	
0	0	0	0	0	305	
1	0	0	0	0	305	
2	0	0	0	0	306	
3	0	0	0	0	306	
4	0	0	0	0	307	
5	0	0	0	0	307	
6	0	0	0	0	308	
7	0	0	0	0	308	
8	0	0	0	0	309	
9	0	0	0	0	309	
10	0	0	0	0	309	
11	0	0	0	0	310	
12	0	0	0	0	310	
13	0	0	0	0	310	
14	0	0	0	0	310	
15	0	0	0	0	310	
0	0	0	0	0	310	
1	0	0	0	0	310	
2	0	0	0	0	310	
3	0	0	0	0	310	
4	0	0	0	0	310	
5	0	0	0	0	310	
6	0	0	0	0	310	
7	0	0	0	0	310	
8	0	0	0	0	310	
9	0	0	0	0	310	
10	0	0	0	0	310	
11	0	0	0	0	309	
12	0	0	0	0	309	
13	0	0	0	0	310	
14	0	0	0	0	310	
15	0	0	0	0	311	
0	0	0	0	0	312	
1	0	0	0	0	312	
2	0	0	0	0	313	
3	0	0	0	0	314	
4	0	0	0	0	316	
5	0	0	0	0	316	
6	0	0	0	0	317	
7	0	0	0	0	318	
8	0	0	0	0	319	
9	0	0	0	0	319	
10	0	0	0	0	319	
11	0	0	0	0	320	
12	0	0	0	0	320	
13	0	0	0	0	321	
14	0	0	0	0	321	
15	0	0	0	0	321	
0	0	0	0	0	321	
1	0	0	0	0	321	
2	0	0	0	0	321	
3	0	0	0	0	321	
4	0	0	0	0	321	
5	0	0	0	0	320	
6	0	0	0	0	320	
7	0	0	0	0	320	
8	0	0	0	0	319	
9	0	0	0	0	319	
10	0	0	0	0	319	
11	0	0	0	0	319	
12	0	0	0	0	318	
13	0	0	0	0	318	
14	0	0	0	0	318	
15	0	0	0	0	317	
0	0	0	0	0	317	
1	0	0	0	0	317	
2	0	0	0	0	316	
3	0	0	0	0	316	
4	0	0	0	0	316	
5	0	0	0	0	316	
6	0	0	0	0	316	
7	0	0	0	0	315	
8	0	0	0	0	315	
9	0	0	0	0	315	
10	0	0	0	0	315	
11	0	0	0	0	315	
12	0	0	0	0	314	
13	0	0	0	0	314	
14	0	0	0	0	314	
15	0	0	0	0	314	
0	0	0	0	0	314	
1	0	0	0	0	314	
2	0	0	0	0	314	
3	0	0	0	0	313	
4	0	0	0	0	313	
5	0	0	0	0	313	
6	0	0	0	0	314	
7	0	0	0	0	313	
8	0	0	0	0	313	
9	0	0	0	0	313	
10	0	0	0	0	313	
11	0	0	0	0	313	
12	0	0	0	0	313	
13	0	0	0	0	313	
14	0	0	0	0	313	
15	0	0	0	0	313	
0	0	0	0	0	313	
1	0	0	0	0	313	
2	0	0	0	0	313	
3	0	0	0	0	313	
4	0	0	0	0	313	
5	0	0	0	0	313	
6	0	0	0	0	313	
7	0	0	0	0	313	
8	0	0	0	0	313	
9	0	0	0	0	313	
10	0	0	0	0	313	
11	0	0	0	0	313	
12	0	0	0	0	313	
13	0	0	0	0	313	
14	0	0	0	0	313	
15	0	0	0	0	313	
0	0	0	0	0	314	
1	0	0	0	0	313	
2	0	0	0	0	314	
3	0	0	0	0	314	
4	0	0	0	0	314	
5	0	0	0	0	314	
6	0	0	0	0	314	
7	0	0	0	0	313	
8	0	0	0	0	314	
9	0	0	0	0	313	
10	0	0	0	0	314	
11	0	0	0	0	313	
12	0	0	0	0	313	
13	0	0	0	0	313	
14	0	0	0	0	314	
15	0	0	0	0	313	
0	0	0	0	0	314	
1	0	0	0	0	313	
2	0	0	0	0	313	
3	0	0	0	0	313	
4	0	0	0	0	313	
5	0	0	0	0	313	
6	0	0	0	0	313	
7	0	0	0	0	313	
8	0	0	0	0	313	
9	0	0	0	0	313	
10	0	0	0	0	313	
11	0	0	0	0	313	
12	0	0	0	0	313	
13	0	0	0	0	313	
14	0	0	0	0	313	
15	0	0	0	0	313	
0	0	0	0	0	313	
1	0	0	0	0	313	
2	0	0	0	0	313	
3	0	0	0	0	313	
4	0	0	0	0	313	
5	0	0	0	0	312	
6	0	0	0	0	313	
7	0	0	0	0	313	
8	0	0	0	0	313	
9	0	0	0	0	313	
10	0	0	0	0	313	
11	0	0	0	0	313	
12	0	0	0	0	314	
13	0	0	0	0	314	
14	0	0	0	0	314	
15	0	0	0	0	313	
0	0	0	0	0	314	
1	0	0	0	0	314	
2	0	0	0	0	314	
3	0	0	0	0	313	
4	0	0	0	0	314	
5	0	0	0	0	313	
6	0	0	0	0	314	
7	0	0	0	0	314	
8	0	0	0	0	314	
9	0	0	0	0	314	
10	0	0	0	0	314	
11	0	0	0	0	314	
12	0	0	0	0	314	
13	0	0	0	0	313	
14	0	0	0	0	313	
15	0	0	0	0	313	
0	0	0	0	0	313	
1	0	0	0	0	313	
2	0	0	0	0	313	
3	0	0	0	0	313	
4	0	0	0	0	313	
5	0	0	0	0	313	
6	0	0	0	0	313	
7	0	0	0	0	313	
8	0	0	0	0	313	
9	0	0	0	0	313	
10	0	0	0	0	313	
11	0	0	0	0	313	
12	0	0	0	0	313	
13	0	0	0	0	313	
14	0	0	0	0	313	
15	0	0	0	0	312	
0	0	0	0	0	312	
1	0	0	0	0	312	
2	0	0	0	0	312	
3	0	0	0	0	312	
4	0	0	0	0	312	
5	0	0	0	0	312	
6	0	0	0	0	312	
7	0	0	0	0	312	
8	0	0	0	0	312	
9	0	0	0	0	312	
10	0	0	0	0	312	
11	0	0	0	0	312	
12	0	0	0	0	312	
13	0	0	0	0	312	
14	0	0	0	0	312	
15	0	0	0	0	312	
0	0	0	0	0	312	
1	0	0	0	0	312	
2	0	0	0	0	312	
3	0	0	0	0	311	
4	0	0	0	0	312	
5	0	0	0	0	311	
6	0	0	0	0	311	
7	0	0	0	0	311	
8	0	0	0	0	311	
9	0	0	0	0	311	
10	0	0	0	0	311	
11	0	0	0	0	311	
12	0	0	0	0	311	
13	0	0	0	0	311	
14	0	0	0	0	311	
15	0	0	0	0	311	
0	0	0	0	0	311	
1	0	0	0	0	310	
2	0	0	0	0	311	
3	0	0	0	0	310	
4	0	0	0	0	310	
5	0	0	0	0	310	
6	0	0	0	0	310	
7	0	0	0	0	310	
8	0	0	0	0	310	
9	0	0	0	0	310	
10	0	0	0	0	310	
11	0	0	0	0	310	
12	0	0	0	0	310	
13	0	0	0	0	309	
14	0	0	0	0	309	
15	0	0	0	0	309	
0	0	0	0	0	309	
1	0	0	0	0	309	
2	0	0	0	0	309	
3	0	0	0	0	309	
4	0	0	0	0	309	
5	0	0	0	0	309	
6	0	0	0	0	309	
7	0	0	0	0	309	
8	0	0	0	0	308	
9	0	0	0	0	308	
10	0	0	0	0	308	
11	0	0	0	0	308	
12	0	0	0	0	308	
13	0	0	0	0	307	
14	0	0	0	0	308	
15	0	0	0	0	307	
0	0	0	0	0	308	
1	0	0	0	0	307	
2	0	0	0	0	307	
3	0	0	0	0	307	
4	0	0	0	0	307	
5	0	0	0	0	307	
6	0	0	0	0	307	
7	0	0	0	0	307	
8	0	0	0	0	307	
9	0	0	0	0	307	
10	0	0	0	0	306	
11	0	0	0	0	306	
12	0	0	0	0	306	
13	0	0	0	0	306	
14	0	0	0	0	306	
15	0	0	0	0	305	
0	0	0	0	0	305	
1	0	0	0	0	305	
2	0	0	0	0	305	
3	0	0	0	0	305	
4	0	0	0	0	305	
5	0	0	0	0	305	
6	0	0	0	0	305	
7	0	0	0	0	305	
8	0	0	0	0	305	
9	0	0	0	0	304	
10	0	0	0	0	305	
11	0	0	0	0	304	
12	0	0	0	0	304	
13	0	0	0	0	304	
14	0	0	0	0	304	
15	0	0	0	0	304	
0	0	0	0	0	304	
1	0	0	0	0	304	
2	0	0	0	0	304	
3	0	0	0	0	303	
4	0	0	0	0	303	
5	0	0	0	0	303	
6	0	0	0	0	303	
7	0	0	0	0	303	
8	0	0	0	0	303	
9	0	0	0	0	302	
10	0	0	0	0	303	
11	0	0	0	0	302	
12	0	0	0	0	302	
13	0	0	0	0	302	
14	0	0	0	0	302	
15	0	0	0	0	302	
0	0	0	0	0	302	
1	0	0	0	0	301	
2	0	0	0	0	301	
3	0	0	0	0	301	
4	0	0	0	0	301	
5	0	0	0	0	301	
6	0	0	0	0	301	
7	0	0	0	0	300	
8	0	0	0	0	300	
9	0	0	0	0	300	
10	0	0	0	0	300	
11	0	0	0	0	300	
12	0	0	0	0	300	
13	0	0	0	0	300	
14	0	0	0	0	300	
15	0	0	0	0	300	
0	0	0	0	0	300	
1	0	0	0	0	299	
2	0	0	0	0	299	
3	0	0	0	0	299	
4	0	0	0	0	299	
5	0	0	0	0	299	
6	0	0	0	0	299	
7	0	0	0	0	298	
8	0	0	0	0	298	
9	0	0	0	0	298	
10	0	0	0	0	298	
11	0	0	0	0	297	
12	0	0	0	0	297	
13	0	0	0	0	297	
14	0	0	0	0	297	
15	0	0	0	0	297	
0	0	0	0	0	296	
1	0	0	0	0	296	
2	0	0	0	0	296	
3	0	0	0	0	296	
4	0	0	0	0	296	
5	0	0	0	0	295	
6	0	0	0	0	295	
7	0	0	0	0	295	
8	0	0	0	0	295	
9	0	0	0	0	295	
10	0	0	0	0	295	
11	0	0	0	0	295	
12	0	0	0	0	295	
13	0	0	0	0	294	
14	0	0	0	0	294	
15	0	0	0	0	294	
0	0	0	0	0	294	
1	0	0	0	0	293	
2	0	0	0	0	293	
3	0	0	0	0	293	
4	0	0	0	0	293	
5	0	0	0	0	292	
6	0	0	0	0	292	
7	0	0	0	0	291	
8	0	0	0	0	291	
9	0	0	0	0	291	
10	0	0	0	0	291	
11	0	0	0	0	291	
12	0	0	0	0	291	
13	0	0	0	0	290	
14	0	0	0	0	290	
15	0	0	0	0	290	
0	0	0	0	0	289	
1	0	0	0	0	289	
2	0	0	0	0	289	
3	0	0	0	0	289	
4	0	0	0	0	289	
5	0	0	0	0	288	
6	0	0	0	0	288	
7	0	0	0	0	288	
8	0	0	0	0	287	
9	0	0	0	0	287	
10	0	0	0	0	287	
11	0	0	0	0	287	
12	0	0	0	0	287	
13	0	0	0	0	286	
14	0	0	0	0	286	
15	0	0	0	0	286	
0	0	0	0	0	285	
1	0	0	0	0	285	
2	0	0	0	0	285	
3	0	0	0	0	284	
4	0	0	0	0	284	
5	0	0	0	0	284	
6	0	0	0	0	284	
7	0	0	0	0	284	
8	0	0	0	0	284	
9	0	0	0	0	283	
10	0	0	0	0	283	
11	0	0	0	0	283	
12	0	0	0	0	282	
13	0	0	0	0	282	
14	0	0	0	0	282	
15	0	0	0	0	281	
0	0	0	0	0	281	
1	0	0	0	0	281	
2	0	0	0	0	281	
3	0	0	0	0	280	
4	0	0	0	0	280	
5	0	0	0	0	280	
6	0	0	0	0	280	
7	0	0	0	0	280	
8	0	0	0	0	279	
9	0	0	0	0	279	
10	0	0	0	0	279	
11	0	0	0	0	279	
12	0	0	0	0	278	
13	0	0	0	0	278	
14	0	0	0	0	278	
15	0	0	0	0	278	
0	0	0	0	0	278	
1	0	0	0	0	277	
2	0	0	0	0	277	
3	0	0	0	0	276	
4	0	0	0	0	276	
5	0	0	0	0	276	
6	0	0	0	0	276	
7	0	0	0	0	275	
8	0	0	0	0	275	
9	0	0	0	0	275	
10	0	0	0	0	275	
11	0	0	0	0	275	
12	0	0	0	0	274	
13	0	0	0	0	274	
14	0	0	0	0	274	
15	0	0	0	0	273	
0	0	0	0	0	273	
1	0	0	0	0	273	
2	0	0	0	0	273	
3	0	0	0	0	272	
4	0	0	0	0	272	
5	0	0	0	0	272	
6	0	0	0	0	272	
7	0	0	0	0	271	
8	0	0	0	0	271	
9	0	0	0	0	271	
10	0	0	0	0	271	
11	0	0	0	0	270	
12	0	0	0	0	270	
13	0	0	0	0	270	
14	0	0	0	0	270	
15	0	0	0	0	269	
0	0	0	0	0	269	
1	0	0	0	0	268	
2	0	0	0	0	268	
3	0	0	0	0	268	
4	0	0	0	0	268	
5	0	0	0	0	268	
6	0	0	0	0	267	
7	0	0	0	0	267	
8	0	0	0	0	267	
9	0	0	0	0	266	
10	0	0	0	0	266	
11	0	0	0	0	266	
12	0	0	0	0	265	
13	0	0	0	0	265	
14	0	0	0	0	265	
15	0	0	0	0	265	
0	0	0	0	0	264	
1	0	0	0	0	264	
2	0	0	0	0	264	
3	0	0	0	0	263	
4	0	0	0	0	263	
5	0	0	0	0	263	
6	0	0	0	0	263	
7	0	0	0	0	263	
8	0	0	0	0	262	
9	0	0	0	0	262	
10	0	0	0	0	262	
11	0	0	0	0	261	
12	0	0	0	0	261	
13	0	0	0	0	261	
14	0	0	0	0	261	
15	0	0	0	0	260	
0	0	0	0	0	260	
1	0	0	0	0	260	
2	0	0	0	0	260	
3	0	0	0	0	259	
4	0	0	0	0	259	
5	0	0	0	0	259	
6	0	0	0	0	259	
7	0	0	0	0	258	
8	0	0	0	0	258	
9	0	0	0	0	257	
10	0	0	0	0	257	
11	0	0	0	0	257	
12	0	0	0	0	257	
13	0	0	0	0	256	
14	0	0	0	0	256	
15	0	0	0	0	256	
0	0	0	0	0	256	
1	0	0	0	0	255	
2	0	0	0	0	255	
3	0	0	0	0	255	
4	0	0	0	0	255	
5	0	0	0	0	254	
6	0	0	0	0	254	
7	0	0	0	0	254	
8	0	0	0	0	254	
9	0	0	0	0	253	
10	0	0	0	0	253	
11	0	0	0	0	253	
12	0	0	0	0	253	
13	0	0	0	0	252	
14	0	0	0	0	252	
15	0	0	0	0	252	
0	0	0	0	0	252	
1	0	0	0	0	251	
2	0	0	0	0	251	
3	0	0	0	0	251	
4	0	0	0	0	251	
5	0	0	0	0	250	
6	0	0	0	0	250	
7	0	0	0	0	250	
8	0	0	0	0	250	
9	0	0	0	0	249	
10	0	0	0	0	249	
11	0	0	0	0	249	
12	0	0	0	0	249	
13	0	0	0	0	248	
14	0	0	0	0	248	
15	0	0	0	0	248	
0	0	0	0	0	248	
1	0	0	0	0	247	
2	0	0	0	0	247	
3	0	0	0	0	247	
4	0	0	0	0	247	
5	0	0	0	0	247	
6	0	0	0	0	246	
7	0	0	0	0	246	
8	0	0	0	0	246	
9	0	0	0	0	246	
10	0	0	0	0	245	
11	0	0	0	0	245	
12	0	0	0	0	245	
13	0	0	0	0	244	
14	0	0	0	0	244	
15	0	0	0	0	244	
0	0	0	0	0	244	
1	0	0	0	0	243	
2	0	0	0	0	243	
3	0	0	0	0	243	
4	0	0	0	0	243	
5	0	0	0	0	243	
6	0	0	0	0	242	
7	0	0	0	0	242	
8	0	0	0	0	242	
9	0	0	0	0	241	
10	0	0	0	0	241	
11	0	0	0	0	241	
12	0	0	0	0	240	
13	0	0	0	0	240	
14	0	0	0	0	240	
15	0	0	0	0	240	
0	0	0	0	0	239	
1	0	0	0	0	239	
2	0	0	0	0	239	
3	0	0	0	0	239	
4	0	0	0	0	239	
5	0	0	0	0	238	
6	0	0	0	0	238	
7	0	0	0	0	238	
8	0	0	0	0	237	
9	0	0	0	0	237	
10	0	0	0	0	237	
11	0	0	0	0	236	
12	0	0	0	0	236	
13	0	0	0	0	236	
14	0	0	0	0	236	
15	0	0	0	0	235	
0	0	0	0	0	236	
1	0	0	0	0	235	
2	0	0	0	0	235	
3	0	0	0	0	234	
4	0	0	0	0	234	
5	0	0	0	0	234	
6	0	0	0	0	233	
7	0	0	0	0	233	
8	0	0	0	0	233	
9	0	0	0	0	232	
10	0	0	0	0	232	
11	0	0	0	0	232	
12	0	0	0	0	232	
13	0	0	0	0	231	
14	0	0	0	0	231	
15	0	0	0	0	231	
0	0	0	0	0	231	
1	0	0	0	0	230	
2	0	0	0	0	230	
3	0	0	0	0	230	
4	0	0	0	0	230	
5	0	0	0	0	229	
6	0	0	0	0	229	
7	0	0	0	0	228	
8	0	0	0	0	228	
9	0	0	0	0	228	
10	0	0	0	0	228	
11	0	0	0	0	227	
12	0	0	0	0	227	
13	0	0	0	0	227	
14	0	0	0	0	227	
15	0	0	0	0	226	
0	0	0	0	0	226	
1	0	0	0	0	226	
2	0	0	0	0	226	
3	0	0	0	0	225	
4	0	0	0	0	225	
5	0	0	0	0	225	
6	0	0	0	0	224	
7	0	0	0	0	224	
8	0	0	0	0	224	
9	0	0	0	0	224	
10	0	0	0	0	223	
11	0	0	0	0	223	
12	0	0	0	0	223	
13	0	0	0	0	223	
14	0	0	0	0	222	
15	0	0	0	0	222	
0	0	0	0	0	222	
1	0	0	0	0	221	
2	0	0	0	0	221	
3	0	0	0	0	221	
4	0	0	0	0	221	
5	0	0	0	0	220	
6	0	0	0	0	220	
7	0	0	0	0	220	
8	0	0	0	0	220	
9	0	0	0	0	219	
10	0	0	0	0	219	
11	0	0	0	0	219	
12	0	0	0	0	218	
13	0	0	0	0	218	
14	0	0	0	0	217	
15	0	0	0	0	217	
0	0	0	0	0	217	
1	0	0	0	0	216	
2	0	0	0	0	216	
3	0	0	0	0	216	
4	0	0	0	0	216	
5	0	0	0	0	215	
6	0	0	0	0	215	
7	0	0	0	0	215	
8	0	0	0	0	215	
9	0	0	0	0	214	
10	0	0	0	0	214	
11	0	0	0	0	214	
12	0	0	0	0	213	
13	0	0	0	0	213	
14	0	0	0	0	213	
15	0	0	0	0	212	
0	0	0	0	0	212	
1	0	0	0	0	212	
2	0	0	0	0	211	
3	0	0	0	0	211	
4	0	0	0	0	211	
5	0	0	0	0	211	
6	0	0	0	0	211	
7	0	0	0	0	210	
8	0	0	0	0	210	
9	0	0	0	0	209	
10	0	0	0	0	209	
11	0	0	0	0	209	
12	0	0	0	0	209	
13	0	0	0	0	208	
14	0	0	0	0	208	
15	0	0	0	0	208	
0	0	0	0	0	208	
1	0	0	0	0	207	
2	0	0	0	0	207	
3	0	0	0	0	207	
4	0	0	0	0	207	
5	0	0	0	0	206	
6	0	0	0	0	206	
7	0	0	0	0	206	
8	0	0	0	0	206	
9	0	0	0	0	205	
10	0	0	0	0	205	
11	0	0	0	0	205	
12	0	0	0	0	205	
13	0	0	0	0	204	
14	0	0	0	0	204	
15	0	0	0	0	204	
0	0	0	0	0	204	
1	0	0	0	0	203	
2	0	0	0	0	203	
3	0	0	0	0	203	
4	0	0	0	0	202	
5	0	0	0	0	202	
6	0	0	0	0	202	
7	0	0	0	0	201	
8	0	0	0	0	201	
9	0	0	0	0	201	
10	0	0	0	0	201	
11	0	0	0	0	200	
12	0	0	0	0	200	
13	0	0	0	0	200	
14	0	0	0	0	200	
15	0	0	0	0	199	
0	0	0	0	0	199	
1	0	0	0	0	199	
2	0	0	0	0	199	
3	0	0	0	0	199	
4	0	0	0	0	199	
5	0	0	0	0	198	
6	0	0	0	0	198	
7	0	0	0	0	198	
8	0	0	0	0	197	
9	0	0	0	0	197	
10	0	0	0	0	197	
11	0	0	0	0	196	
12	0	0	0	0	196	
13	0	0	0	0	196	
14	0	0	0	0	196	
15	0	0	0	0	195	
0	0	0	0	0	195	
1	0	0	0	0	195	
2	0	0	0	0	195	
3	0	0	0	0	194	
4	0	0	0	0	194	
5	0	0	0	0	194	
6	0	0	0	0	194	
7	0	0	0	0	193	
8	0	0	0	0	193	
9	0	0	0	0	193	
10	0	0	0	0	193	
11	0	0	0	0	192	
12	0	0	0	0	192	
13	0	0	0	0	192	
14	0	0	0	0	192	
15	0	0	0	0	191	
0	0	0	0	0	191	
1	0	0	0	0	191	
2	0	0	0	0	191	
3	0	0	0	0	191	
4	0	0	0	0	190	
5	0	0	0	0	190	
6	0	0	0	0	190	
7	0	0	0	0	190	
8	0	0	0	0	189	
9	0	0	0	0	189	
10	0	0	0	0	189	
11	0	0	0	0	189	
12	0	0	0	0	188	
13	0	0	0	0	188	
14	0	0	0	0	188	
15	0	0	0	0	188	
0	0	0	0	0	188	
1	0	0	0	0	187	
2	0	0	0	0	187	
3	0	0	0	0	187	
4	0	0	0	0	187	
5	0	0	0	0	186	
6	0	0	0	0	186	
7	0	0	0	0	186	
8	0	0	0	0	186	
9	0	0	0	0	185	
10	0	0	0	0	185	
11	0	0	0	0	185	
12	0	0	0	0	185	
13	0	0	0	0	184	
14	0	0	0	0	184	
15	0	0	0	0	184	
0	0	0	0	0	184	
1	0	0	0	0	184	
2	0	0	0	0	184	
3	0	0	0	0	183	
4	0	0	0	0	183	
5	0	0	0	0	183	
6	0	0	0	0	183	
7	0	0	0	0	182	
8	0	0	0	0	182	
9	0	0	0	0	182	
10	0	0	0	0	182	
11	0	0	0	0	181	
12	0	0	0	0	181	
13	0	0	0	0	181	
14	0	0	0	0	180	
15	0	0	0	0	180	
0	0	0	0	0	180	
1	0	0	0	0	180	
2	0	0	0	0	179	
3	0	0	0	0	179	
4	0	0	0	0	179	
5	0	0	0	0	179	
6	0	0	0	0	179	
7	0	0	0	0	178	
8	0	0	0	0	178	
9	0	0	0	0	178	
10	0	0	0	0	178	
11	0	0	0	0	177	
12	0	0	0	0	177	
13	0	0	0	0	177	
14	0	0	0	0	177	
15	0	0	0	0	176	
0	0	0	0	0	176	
1	0	0	0	0	176	
2	0	0	0	0	176	
3	0	0	0	0	176	
4	0	0	0	0	176	
5	0	0	0	0	175	
6	0	0	0	0	175	
7	0	0	0	0	175	
8	0	0	0	0	175	
9	0	0	0	0	174	
10	0	0	0	0	174	
11	0	0	0	0	174	
12	0	0	0	0	174	
13	0	0	0	0	173	
14	0	0	0	0	173	
15	0	0	0	0	173	
0	0	0	0	0	173	
1	0	0	0	0	172	
2	0	0	0	0	172	
3	0	0	0	0	172	
4	0	0	0	0	172	
5	0	0	0	0	171	
6	0	0	0	0	171	
7	0	0	0	0	171	
8	0	0	0	0	171	
9	0	0	0	0	171	
10	0	0	0	0	171	
11	0	0	0	0	170	
12	0	0	0	0	170	
13	0	0	0	0	169	
14	0	0	0	0	169	
15	0	0	0	0	169	
0	0	0	0	0	169	
1	0	0	0	0	169	
2	0	0	0	0	168	
3	0	0	0	0	168	
4	0	0	0	0	168	
5	0	0	0	0	168	
6	0	0	0	0	168	
7	0	0	0	0	167	
8	0	0	0	0	167	
9	0	0	0	0	167	
10	0	0	0	0	167	
11	0	0	0	0	167	
12	0	0	0	0	167	
13	0	0	0	0	166	
14	0	0	0	0	166	
15	0	0	0	0	166	
0	0	0	0	0	166	
1	0	0	0	0	165	
2	0	0	0	0	165	
3	0	0	0	0	165	
4	0	0	0	0	165	
5	0	0	0	0	164	
6	0	0	0	0	164	
7	0	0	0	0	164	
8	0	0	0	0	164	
9	0	0	0	0	163	
10	0	0	0	0	163	
11	0	0	0	0	163	
12	0	0	0	0	163	
13	0	0	0	0	163	
14	0	0	0	0	163	
15	0	0	0	0	162	
0	0	0	0	0	162	
1	0	0	0	0	162	
2	0	0	0	0	162	
3	0	0	0	0	161	
4	0	0	0	0	161	
5	0	0	0	0	161	
6	0	0	0	0	161	
7	0	0	0	0	161	
8	0	0	0	0	160	
9	0	0	0	0	160	
10	0	0	0	0	160	
11	0	0	0	0	160	
12	0	0	0	0	159	
13	0	0	0	0	159	
14	0	0	0	0	159	
15	0	0	0	0	159	
0	0	0	0	0	159	
1	0	0	0	0	159	
2	0	0	0	0	158	
3	0	0	0	0	158	
4	0	0	0	0	158	
5	0	0	0	0	158	
6	0	0	0	0	158	
7	0	0	0	0	157	
8	0	0	0	0	157	
9	0	0	0	0	157	
10	0	0	0	0	157	
11	0	0	0	0	156	
12	0	0	0	0	156	
13	0	0	0	0	156	
14	0	0	0	0	156	
15	0	0	0	0	156	
0	0	0	0	0	156	
1	0	0	0	0	155	
2	0	0	0	0	155	
3	0	0	0	0	155	
4	0	0	0	0	155	
5	0	0	0	0	154	
6	0	0	0	0	154	
7	0	0	0	0	154	
8	0	0	0	0	153	
9	0	0	0	0	153	
10	0	0	0	0	153	
11	0	0	0	0	153	
12	0	0	0	0	153	
13	0	0	0	0	153	
14	0	0	0	0	152	
15	0	0	0	0	152	
0	0	0	0	0	152	
1	0	0	0	0	152	
2	0	0	0	0	152	
3	0	0	0	0	152	
4	0	0	0	0	152	
5	0	0	0	0	151	
6	0	0	0	0	151	
7	0	0	0	0	151	
8	0	0	0	0	151	
9	0	0	0	0	150	
10	0	0	0	0	150	
11	0	0	0	0	150	
12	0	0	0	0	150	
13	0	0	0	0	150	
14	0	0	0	0	150	
15	0	0	0	0	149	
0	0	0	0	0	149	
1	0	0	0	0	149	
2	0	0	0	0	148	
3	0	0	0	0	148	
4	0	0	0	0	148	
5	0	0	0	0	148	
6	0	0	0	0	148	
7	0	0	0	0	147	
8	0	0	0	0	147	
9	0	0	0	0	147	
10	0	0	0	0	147	
11	0	0	0	0	147	
12	0	0	0	0	147	
13	0	0	0	0	146	
14	0	0	0	0	146	
15	0	0	0	0	146	
0	0	0	0	0	146	
1	0	0	0	0	146	
2	0	0	0	0	146	
3	0	0	0	0	145	
4	0	0	0	0	145	
5	0	0	0	0	145	
6	0	0	0	0	145	
7	0	0	0	0	144	
8	0	0	0	0	144	
9	0	0	0	0	144	
10	0	0	0	0	144	
11	0	0	0	0	144	
12	0	0	0	0	144	
13	0	0	0	0	143	
14	0	0	0	0	143	
15	0	0	0	0	143	
0	0	0	0	0	143	
1	0	0	0	0	143	
2	0	0	0	0	143	
3	0	0	0	0	142	
4	0	0	0	0	142	
5	0	0	0	0	142	
6	0	0	0	0	142	
7	0	0	0	0	142	
8	0	0	0	0	142	
9	0	0	0	0	141	
10	0	0	0	0	141	
11	0	0	0	0	141	
12	0	0	0	0	141	
13	0	0	0	0	140	
14	0	0	0	0	140	
15	0	0	0	0	140	
0	0	0	0	0	140	
1	0	0	0	0	140	
2	0	0	0	0	140	
3	0	0	0	0	139	
4	0	0	0	0	139	
5	0	0	0	0	139	
6	0	0	0	0	139	
7	0	0	0	0	139	
8	0	0	0	0	139	
9	0	0	0	0	138	
10	0	0	0	0	138	
11	0	0	0	0	138	
12	0	0	0	0	137	
13	0	0	0	0	137	
14	0	0	0	0	137	
15	0	0	0	0	137	
0	0	0	0	0	137	
1	0	0	0	0	137	
2	0	0	0	0	137	
3	0	0	0	0	136	
4	0	0	0	0	136	
5	0	0	0	0	136	
6	0	0	0	0	136	
7	0	0	0	0	135	
8	0	0	0	0	135	
9	0	0	0	0	135	
10	0	0	0	0	135	
11	0	0	0	0	135	
12	0	0	0	0	135	
13	0	0	0	0	135	
14	0	0	0	0	135	
15	0	0	0	0	134	
0	0	0	0	0	134	
1	0	0	0	0	134	
2	0	0	0	0	134	
3	0	0	0	0	133	
4	0	0	0	0	133	
5	0	0	0	0	133	
6	0	0	0	0	133	
7	0	0	0	0	132	
8	0	0	0	0	132	
9	0	0	0	0	132	
10	0	0	0	0	132	
11	0	0	0	0	132	
12	0	0	0	0	132	
13	0	0	0	0	131	
14	0	0	0	0	131	
15	0	0	0	0	131	
0	0	0	0	0	131	
1	0	0	0	0	131	
2	0	0	0	0	131	
3	0	0	0	0	130	
4	0	0	0	0	130	
5	0	0	0	0	130	
6	0	0	0	0	130	
7	0	0	0	0	129	
8	0	0	0	0	130	
9	0	0	0	0	129	
10	0	0	0	0	129	
11	0	0	0	0	129	
12	0	0	0	0	129	
13	0	0	0	0	128	
14	0	0	0	0	128	
15	0	0	0	0	128	
0	0	0	0	0	128	
1	0	0	0	0	127	
2	0	0	0	0	127	
3	0	0	0	0	127	
4	0	0	0	0	127	
5	0	0	0	0	127	
6	0	0	0	0	127	
7	0	0	0	0	127	
8	0	0	0	0	127	
9	0	0	0	0	126	
10	0	0	0	0	127	
11	0	0	0	0	126	
12	0	0	0	0	126	
13	0	0	0	0	126	
14	0	0	0	0	126	
15	0	0	0	0	126	
0	0	0	0	0	125	
1	0	0	0	0	125	
2	0	0	0	0	125	
3	0	0	0	0	125	
4	0	0	0	0	125	
5	0	0	0	0	124	
6	0	0	0	0	125	
7	0	0	0	0	124	
8	0	0	0	0	124	
9	0	0	0	0	124	
10	0	0	0	0	124	
11	0	0	0	0	124	
12	0	0	0	0	124	
13	0	0	0	0	123	
14	0	0	0	0	123	
15	0	0	0	0	123	
0	0	0	0	0	123	
1	0	0	0	0	123	
2	0	0	0	0	123	
3	0	0	0	0	122	
4	0	0	0	0	123	
5	0	0	0	0	122	
6	0	0	0	0	122	
7	0	0	0	0	122	
8	0	0	0	0	122	
9	0	0	0	0	121	
10	0	0	0	0	121	
11	0	0	0	0	121	
12	0	0	0	0	121	
13	0	0	0	0	121	
14	0	0	0	0	121	
15	0	0	0	0	121	
0	0	0	0	0	121	
1	0	0	0	0	120	
2	0	0	0	0	120	
3	0	0	0	0	120	
4	0	0	0	0	120	
5	0	0	0	0	120	
6	0	0	0	0	120	
7	0	0	0	0	120	
8	0	0	0	0	120	
9	0	0	0	0	119	
10	0	0	0	0	119	
11	0	0	0	0	119	
12	0	0	0	0	119	
13	0	0	0	0	119	
14	0	0	0	0	119	
15	0	0	0	0	119	
0	0	0	0	0	119	
1	0	0	0	0	118	
2	0	0	0	0	118	
3	0	0	0	0	118	
4	0	0	0	0	118	
5	0	0	0	0	118	
6	0	0	0	0	118	
7	0	0	0	0	118	
8	0	0	0	0	118	
9	0	0	0	0	117	
10	0	0	0	0	117	
11	0	0	0	0	117	
12	0	0	0	0	117	
13	0	0	0	0	117	
14	0	0	0	0	116	
15	0	0	0	0	116	
0	0	0	0	0	116	
1	0	0	0	0	116	
2	0	0	0	0	116	
3	0	0	0	0	116	
4	0	0	0	0	116	
5	0	0	0	0	115	
6	0	0	0	0	116	
7	0	0	0	0	115	
8	0	0	0	0	115	
9	0	0	0	0	115	
10	0	0	0	0	115	
11	0	0	0	0	115	
12	0	0	0	0	115	
13	0	0	0	0	115	
14	0	0	0	0	115	
15	0	0	0	0	114	
0	0	0	0	0	115	
1	0	0	0	0	114	
2	0	0	0	0	114	
3	0	0	0	0	114	
4	0	0	0	0	114	
5	0	0	0	0	114	
6	0	0	0	0	114	
7	0	0	0	0	113	
8	0	0	0	0	114	
9	0	0	0	0	113	
10	0	0	0	0	113	
11	0	0	0	0	113	
12	0	0	0	0	113	
13	0	0	0	0	113	
14	0	0	0	0	113	
15	0	0	0	0	113	
0	0	0	0	0	113	
1	0	0	0	0	112	
2	0	0	0	0	113	
3	0	0	0	0	112	
4	0	0	0	0	112	
5	0	0	0	0	112	
6	0	0	0	0	112	
7	0	0	0	0	112	
8	0	0	0	0	112	
9	0	0	0	0	112	
10	0	0	0	0	112	
11	0	0	0	0	112	
12	0	0	0	0	112	
13	0	0	0	0	111	
14	0	0	0	0	111	
15	0	0	0	0	111	
0	0	0	0	0	111	
1	0	0	0	0	111	
2	0	0	0	0	111	
3	0	0	0	0	111	
4	0	0	0	0	111	
5	0	0	0	0	111	
6	0	0	0	0	111	
7	0	0	0	0	110	
8	0	0	0	0	110	
9	0	0	0	0	110	
10	0	0	0	0	110	
11	0	0	0	0	110	
12	0	0	0	0	110	
13	0	0	0	0	110	
14	0	0	0	0	110	
15	0	0	0	0	109	
0	0	0	0	0	110	
1	0	0	0	0	109	
2	0	0	0	0	109	
3	0	0	0	0	109	
4	0	0	0	0	109	
5	0	0	0	0	109	
6	0	0	0	0	109	
7	0	0	0	0	108	
8	0	0	0	0	109	
9	0	0	0	0	108	
10	0	0	0	0	108	
11	0	0	0	0	108	
12	0	0	0	0	108	
13	0	0	0	0	108	
14	0	0	0	0	108	
15	0	0	0	0	108	
0	0	0	0	0	108	
1	0	0	0	0	107	
2	0	0	0	0	108	
3	0	0	0	0	107	
4	0	0	0	0	108	
5	0	0	0	0	107	
6	0	0	0	0	107	
7	0	0	0	0	107	
8	0	0	0	0	107	
9	0	0	0	0	107	
10	0	0	0	0	107	
11	0	0	0	0	106	
12	0	0	0	0	106	
13	0	0	0	0	106	
14	0	0	0	0	106	
15	0	0	0	0	106	
0	0	0	0	0	106	
1	0	0	0	0	106	
2	0	0	0	0	106	
3	0	0	0	0	105	
4	0	0	0	0	105	
5	0	0	0	0	105	
6	0	0	0	0	105	
7	0	0	0	0	105	
8	0	0	0	0	105	
9	0	0	0	0	105	
10	0	0	0	0	105	
11	0	0	0	0	105	
12	0	0	0	0	104	
13	0	0	0	0	104	
14	0	0	0	0	104	
15	0	0	0	0	104	
0	0	0	0	0	104	
1	0	0	0	0	104	
2	0	0	0	0	104	
3	0	0	0	0	103	
4	0	0	0	0	103	
5	0	0	0	0	103	
6	0	0	0	0	103	
7	0	0	0	0	103	
8	0	0	0	0	103	
9	0	0	0	0	103	
10	0	0	0	0	103	
11	0	0	0	0	103	
12	0	0	0	0	103	
13	0	0	0	0	103	
14	0	0	0	0	103	
15	0	0	0	0	103	
0	0	0	0	0	103	
1	0	0	0	0	102	
2	0	0	0	0	103	
3	0	0	0	0	102	
4	0	0	0	0	102	
5	0	0	0	0	102	
6	0	0	0	0	102	
7	0	0	0	0	102	
8	0	0	0	0	102	
9	0	0	0	0	101	
10	0	0	0	0	102	
11	0	0	0	0	101	
12	0	0	0	0	101	
13	0	0	0	0	101	
14	0	0	0	0	101	
15	0	0	0	0	101	
0	0	0	0	0	101	
1	0	0	0	0	101	
2	0	0	0	0	101	
3	0	0	0	0	100	
4	0	0	0	0	100	
5	0	0	0	0	100	
6	0	0	0	0	100	
7	0	0	0	0	100	
8	0	0	0	0	100	
9	0	0	0	0	99	
10	0	0	0	0	100	
11	0	0	0	0	99	
12	0	0	0	0	100	
13	0	0	0	0	99	
14	0	0	0	0	99	
15	0	0	0	0	99	
0	0	0	0	0	99	
1	0	0	0	0	99	
2	0	0	0	0	99	
3	0	0	0	0	99	
4	0	0	0	0	99	
5	0	0	0	0	99	
6	0	0	0	0	99	
7	0	0	0	0	98	
8	0	0	0	0	99	
9	0	0	0	0	98	
10	0	0	0	0	99	
11	0	0	0	0	98	
12	0	0	0	0	98	
13	0	0	0	0	98	
14	0	0	0	0	98	
15	0	0	0	0	97	
0	0	0	0	0	98	
1	0	0	0	0	98	
2	0	0	0	0	98	
3	0	0	0	0	97	
4	0	0	0	0	97	
5	0	0	0	0	97	
6	0	0	0	0	97	
7	0	0	0	0	97	
8	0	0	0	0	97	
9	0	0	0	0	97	
10	0	0	0	0	97	
11	0	0	0	0	97	
12	0	0	0	0	96	
13	0	0	0	0	96	
14	0	0	0	0	96	
15	0	0	0	0	96	
0	0	0	0	0	96	
1	0	0	0	0	96	
2	0	0	0	0	96	
3	0	0	0	0	96	
4	0	0	0	0	96	
5	0	0	0	0	96	
6	0	0	0	0	96	
7	0	0	0	0	96	
8	0	0	0	0	96	
9	0	0	0	0	95	
10	0	0	0	0	95	
11	0	0	0	0	95	
12	0	0	0	0	95	
13	0	0	0	0	95	
14	0	0	0	0	95	
15	0	0	0	0	95	
0	0	0	0	0	95	
1	0	0	0	0	95	
2	0	0	0	0	95	
3	0	0	0	0	95	
4	0	0	0	0	95	
5	0	0	0	0	94	
6	0	0	0	0	95	
7	0	0	0	0	94	
8	0	0	0	0	94	
9	0	0	0	0	94	
10	0	0	0	0	94	
11	0	0	0	0	94	
12	0	0	0	0	94	
13	0	0	0	0	94	
14	0	0	0	0	94	
15	0	0	0	0	94	
0	0	0	0	0	94	
1	0	0	0	0	93	
2	0	0	0	0	94	
3	0	0	0	0	93	
4	0	0	0	0	93	
5	0	0	0	0	93	
6	0	0	0	0	93	
7	0	0	0	0	93	
8	0	0	0	0	93	
9	0	0	0	0	92	
10	0	0	0	0	92	
11	0	0	0	0	93	
12	0	0	0	0	93	
13	0	0	0	0	92	
14	0	0	0	0	92	
15	0	0	0	0	92	
0	0	0	0	0	92	
1	0	0	0	0	92	
2	0	0	0	0	92	
3	0	0	0	0	92	
4	0	0	0	0	92	
5	0	0	0	0	92	
6	0	0	0	0	92	
7	0	0	0	0	91	
8	0	0	0	0	92	
9	0	0	0	0	92	
10	0	0	0	0	92	
11	0	0	0	0	91	
12	0	0	0	0	91	
13	0	0	0	0	91	
14	0	0	0	0	91	
15	0	0	0	0	91	
0	0	0	0	0	91	
1	0	0	0	0	91	
2	0	0	0	0	91	
3	0	0	0	0	91	
4	0	0	0	0	91	
5	0	0	0	0	91	
6	0	0	0	0	90	
7	0	0	0	0	90	
8	0	0	0	0	90	
9	0	0	0	0	90	
10	0	0	0	0	90	
11	0	0	0	0	90	
12	0	0	0	0	90	
13	0	0	0	0	89	
14	0	0	0	0	89	
15	0	0	0	0	89	
0	0	0	0	0	89	
1	0	0	0	0	89	
2	0	0	0	0	89	
3	0	0	0	0	89	
4	0	0	0	0	89	
5	0	0	0	0	89	
6	0	0	0	0	89	
7	0	0	0	0	88	
8	0	0	0	0	89	
9	0	0	0	0	88	
10	0	0	0	0	88	
11	0	0	0	0	88	
12	0	0	0	0	88	
13	0	0	0	0	88	
14	0	0	0	0	88	
15	0	0	0	0	88	
0	0	0	0	0	88	
1	0	0	0	0	88	
2	0	0	0	0	88	
3	0	0	0	0	87	
4	0	0	0	0	88	
5	0	0	0	0	87	
6	0	0	0	0	87	
7	0	0	0	0	87	
8	0	0	0	0	87	
9	0	0	0	0	87	
10	0	0	0	0	87	
11	0	0	0	0	87	
12	0	0	0	0	87	
13	0	0	0	0	86	
14	0	0	0	0	87	
15	0	0	0	0	86	
0	0	0	0	0	87	
1	0	0	0	0	86	
2	0	0	0	0	86	
3	0	0	0	0	86	
4	0	0	0	0	86	
5	0	0	0	0	86	
6	0	0	0	0	86	
7	0	0	0	0	86	
8	0	0	0	0	86	
9	0	0	0	0	86	
10	0	0	0	0	86	
11	0	0	0	0	86	
12	0	0	0	0	86	
13	0	0	0	0	85	
14	0	0	0	0	86	
15	0	0	0	0	85	
0	0	0	0	0	86	
1	0	0	0	0	85	
2	0	0	0	0	85	
3	0	0	0	0	85	
4	0	0	0	0	85	
5	0	0	0	0	85	
6	0	0	0	0	85	
7	0	0	0	0	84	
8	0	0	0	0	85	
9	0	0	0	0	85	
10	0	0	0	0	84	
11	0	0	0	0	84	
12	0	0	0	0	84	
13	0	0	0	0	84	
14	0	0	0	0	84	
15	0	0	0	0	84	
0	0	0	0	0	84	
1	0	0	0	0	84	
2	0	0	0	0	84	
3	0	0	0	0	84	
4	0	0	0	0	84	
5	0	0	0	0	83	
6	0	0	0	0	83	
7	0	0	0	0	83	
8	0	0	0	0	84	
9	0	0	0	0	83	
10	0	0	0	0	83	
11	0	0	0	0	83	
12	0	0	0	0	83	
13	0	0	0	0	83	
14	0	0	0	0	83	
15	0	0	0	0	83	
0	0	0	0	0	83	
1	0	0	0	0	83	
2	0	0	0	0	83	
3	0	0	0	0	83	
4	0	0	0	0	83	
5	0	0	0	0	83	
6	0	0	0	0	83	
7	0	0	0	0	82	
8	0	0	0	0	83	
9	0	0	0	0	82	
10	0	0	0	0	83	
11	0	0	0	0	82	
12	0	0	0	0	82	
13	0	0	0	0	82	
14	0	0	0	0	82	
15	0	0	0	0	82	
0	0	0	0	0	82	
1	0	0	0	0	82	
2	0	0	0	0	82	
3	0	0	0	0	82	
4	0	0	0	0	82	
5	0	0	0	0	81	
6	0	0	0	0	82	
7	0	0	0	0	81	
8	0	0	0	0	81	
9	0	0	0	0	81	
10	0	0	0	0	81	
11	0	0	0	0	81	
12	0	0	0	0	81	
13	0	0	0	0	81	
14	0	0	0	0	81	
15	0	0	0	0	81	
0	0	0	0	0	81	
1	0	0	0	0	81	
2	0	0	0	0	81	
3	0	0	0	0	81	
4	0	0	0	0	81	
5	0	0	0	0	81	
6	0	0	0	0	81	
7	0	0	0	0	80	
8	0	0	0	0	80	
9	0	0	0	0	80	
10	0	0	0	0	80	
11	0	0	0	0	80	
12	0	0	0	0	81	
13	0	0	0	0	80	
14	0	0	0	0	80	
15	0	0	0	0	80	
0	0	0	0	0	80	
1	0	0	0	0	80	
2	0	0	0	0	80	
3	0	0	0	0	80	
4	0	0	0	0	80	
5	0	0	0	0	80	
6	0	0	0	0	80	
7	0	0	0	0	80	
8	0	0	0	0	80	
9	0	0	0	0	79	
10	0	0	0	0	80	
11	0	0	0	0	80	
12	0	0	0	0	80	
13	0	0	0	0	79	
14	0	0	0	0	80	
15	0	0	0	0	79	
0	0	0	0	0	80	
1	0	0	0	0	79	
2	0	0	0	0	79	
3	0	0	0	0	79	
4	0	0	0	0	79	
5	0	0	0	0	79	
6	0	0	0	0	79	
7	0	0	0	0	79	
8	0	0	0	0	79	
9	0	0	0	0	79	
10	0	0	0	0	79	
11	0	0	0	0	79	
12	0	0	0	0	79	
13	0	0	0	0	79	
14	0	0	0	0	79	
15	0	0	0	0	79	
0	0	0	0	0	79	
1	0	0	0	0	79	
2	0	0	0	0	79	
3	0	0	0	0	79	
4	0	0	0	0	79	
5	0	0	0	0	79	
6	0	0	0	0	79	
7	0	0	0	0	78	
8	0	0	0	0	79	
9	0	0	0	0	78	
10	0	0	0	0	79	
11	0	0	0	0	78	
12	0	0	0	0	78	
13	0	0	0	0	78	
14	0	0	0	0	78	
15	0	0	0	0	78	
0	0	0	0	0	78	
1	0	0	0	0	78	
2	0	0	0	0	78	
3	0	0	0	0	78	
4	0	0	0	0	78	
5	0	0	0	0	78	
6	0	0	0	0	78	
7	0	0	0	0	78	
8	0	0	0	0	78	
9	0	0	0	0	78	
10	0	0	0	0	78	
11	0	0	0	0	78	
12	0	0	0	0	78	
13	0	0	0	0	77	
14	0	0	0	0	77	
15	0	0	0	0	77	
0	0	0	0	0	78	
1	0	0	0	0	77	
2	0	0	0	0	77	
3	0	0	0	0	77	
4	0	0	0	0	77	
5	0	0	0	0	77	
6	0	0	0	0	77	
7	0	0	0	0	77	
8	0	0	0	0	77	
9	0	0	0	0	77	
10	0	0	0	0	77	
11	0	0	0	0	76	
12	0	0	0	0	77	
13	0	0	0	0	76	
14	0	0	0	0	77	
15	0	0	0	0	76	
0	0	0	0	0	76	
1	0	0	0	0	76	
2	0	0	0	0	76	
3	0	0	0	0	76	
4	0	0	0	0	76	
5	0	0	0	0	76	
6	0	0	0	0	76	
7	0	0	0	0	76	
8	0	0	0	0	76	
9	0	0	0	0	76	
10	0	0	0	0	76	
11	0	0	0	0	76	
12	0	0	0	0	76	
13	0	0	0	0	76	
14	0	0	0	0	76	
15	0	0	0	0	75	
0	0	0	0	0	75	
1	0	0	0	0	75	
2	0	0	0	0	75	
3	0	0	0	0	75	
4	0	0	0	0	76	
5	0	0	0	0	75	
6	0	0	0	0	75	
7	0	0	0	0	75	
8	0	0	0	0	75	
9	0	0	0	0	75	
10	0	0	0	0	75	
11	0	0	0	0	75	
12	0	0	0	0	75	
13	0	0	0	0	75	
14	0	0	0	0	75	
15	0	0	0	0	75	
0	0	0	0	0	75	
1	0	0	0	0	74	
2	0	0	0	0	75	
3	0	0	0	0	74	
4	0	0	0	0	75	
5	0	0	0	0	74	
6	0	0	0	0	74	
7	0	0	0	0	74	
8	0	0	0	0	74	
9	0	0	0	0	74	
10	0	0	0	0	74	
11	0	0	0	0	74	
12	0	0	0	0	74	
13	0	0	0	0	73	
14	0	0	0	0	74	
15	0	0	0	0	73	
0	0	0	0	0	74	
1	0	0	0	0	73	
2	0	0	0	0	73	
3	0	0	0	0	73	
4	0	0	0	0	73	
5	0	0	0	0	73	
6	0	0	0	0	73	
7	0	0	0	0	73	
8	0	0	0	0	73	
9	0	0	0	0	73	
10	0	0	0	0	73	
11	0	0	0	0	73	
12	0	0	0	0	73	
13	0	0	0	0	73	
14	0	0	0	0	73	
15	0	0	0	0	73	
0	0	0	0	0	73	
1	0	0	0	0	73	
2	0	0	0	0	73	
3	0	0	0	0	72	
4	0	0	0	0	73	
5	0	0	0	0	72	
6	0	0	0	0	73	
7	0	0	0	0	72	
8	0	0	0	0	72	
9	0	0	0	0	72	
10	0	0	0	0	72	
11	0	0	0	0	72	
12	0	0	0	0	72	
13	0	0	0	0	72	
14	0	0	0	0	72	
15	0	0	0	0	72	
0	0	0	0	0	72	
1	0	0	0	0	72	
2	0	0	0	0	72	
3	0	0	0	0	71	
4	0	0	0	0	71	
5	0	0	0	0	71	
6	0	0	0	0	71	
7	0	0	0	0	71	
8	0	0	0	0	71	
9	0	0	0	0	71	
10	0	0	0	0	71	
11	0	0	0	0	71	
12	0	0	0	0	71	
13	0	0	0	0	71	
14	0	0	0	0	71	
15	0	0	0	0	71	
0	0	0	0	0	71	
1	0	0	0	0	71	
2	0	0	0	0	71	
3	0	0	0	0	70	
4	0	0	0	0	71	
5	0	0	0	0	70	
6	0	0	0	0	71	
7	0	0	0	0	70	
8	0	0	0	0	70	
9	0	0	0	0	70	
10	0	0	0	0	70	
11	0	0	0	0	70	
12	0	0	0	0	70	
13	0	0	0	0	70	
14	0	0	0	0	70	
15	0	0	0	0	70	
0	0	0	0	0	70	
1	0	0	0	0	70	
2	0	0	0	0	70	
3	0	0	0	0	69	
4	0	0	0	0	70	
5	0	0	0	0	69	
6	0	0	0	0	69	
7	0	0	0	0	69	
8	0	0	0	0	69	
9	0	0	0	0	69	
10	0	0	0	0	69	
11	0	0	0	0	69	
12	0	0	0	0	69	
13	0	0	0	0	69	
14	0	0	0	0	69	
15	0	0	0	0	69	
0	0	0	0	0	69	
1	0	0	0	0	69	
2	0	0	0	0	69	
3	0	0	0	0	68	
4	0	0	0	0	69	
5	0	0	0	0	68	
6	0	0	0	0	68	
7	0	0	0	0	68	
8	0	0	0	0	68	
9	0	0	0	0	68	
10	0	0	0	0	68	
11	0	0	0	0	68	
12	0	0	0	0	68	
13	0	0	0	0	68	
14	0	0	0	0	68	
15	0	0	0	0	68	
0	0	0	0	0	68	
1	0	0	0	0	68	
2	0	0	0	0	68	
3	0	0	0	0	68	
4	0	0	0	0	68	
5	0	0	0	0	67	
6	0	0	0	0	68	
7	0	0	0	0	67	
8	0	0	0	0	68	
9	0	0	0	0	67	
10	0	0	0	0	68	
11	0	0	0	0	67	
12	0	0	0	0	67	
13	0	0	0	0	67	
14	0	0	0	0	67	
15	0	0	0	0	67	
0	0	0	0	0	67	
1	0	0	0	0	67	
2	0	0	0	0	67	
3	0	0	0	0	67	
4	0	0	0	0	67	
5	0	0	0	0	67	
6	0	0	0	0	67	
7	0	0	0	0	67	
8	0	0	0	0	67	
9	0	0	0	0	67	
10	0	0	0	0	67	
11	0	0	0	0	67	
12	0	0	0	0	67	
13	0	0	0	0	67	
14	0	0	0	0	67	
15	0	0	0	0	67	
0	0	0	0	0	67	
1	0	0	0	0	67	
2	0	0	0	0	67	
3	0	0	0	0	66	
4	0	0	0	0	67	
5	0	0	0	0	67	
6	0	0	0	0	67	
7	0	0	0	0	66	
8	0	0	0	0	67	
9	0	0	0	0	66	
10	0	0	0	0	66	
11	0	0	0	0	66	
12	0	0	0	0	66	
13	0	0	0	0	66	
14	0	0	0	0	66	
15	0	0	0	0	66	
0	0	0	0	0	66	
1	0	0	0	0	66	
2	0	0	0	0	66	
3	0	0	0	0	66	
4	0	0	0	0	66	
5	0	0	0	0	66	
6	0	0	0	0	66	
7	0	0	0	0	66	
8	0	0	0	0	66	
9	0	0	0	0	66	
10	0	0	0	0	66	
11	0	0	0	0	66	
12	0	0	0	0	66	
13	0	0	0	0	66	
14	0	0	0	0	66	
15	0	0	0	0	66	
0	0	0	0	0	66	
1	0	0	0	0	66	
2	0	0	0	0	66	
3	0	0	0	0	66	
4	0	0	0	0	66	
5	0	0	0	0	65	
6	0	0	0	0	66	
7	0	0	0	0	65	
8	0	0	0	0	66	
9	0	0	0	0	66	
10	0	0	0	0	66	
11	0	0	0	0	65	
12	0	0	0	0	66	
13	0	0	0	0	65	
14	0	0	0	0	66	
15	0	0	0	0	65	
0	0	0	0	0	65	
1	0	0	0	0	65	
2	0	0	0	0	66	
3	0	0	0	0	65	
4	0	0	0	0	65	
5	0	0	0	0	65	
6	0	0	0	0	65	
7	0	0	0	0	65	
8	0	0	0	0	65	
9	0	0	0	0	65	
10	0	0	0	0	65	
11	0	0	0	0	65	
12	0	0	0	0	65	
13	0	0	0	0	65	
14	0	0	0	0	65	
15	0	0	0	0	65	
0	0	0	0	0	65	
1	0	0	0	0	65	
2	0	0	0	0	65	
3	0	0	0	0	65	
4	0	0	0	0	65	
5	0	0	0	0	65	
6	0	0	0	0	65	
7	0	0	0	0	65	
8	0	0	0	0	65	
9	0	0	0	0	65	
10	0	0	0	0	65	
11	0	0	0	0	64	
12	0	0	0	0	64	
13	0	0	0	0	64	
14	0	0	0	0	65	
15	0	0	0	0	64	
0	0	0	0	0	64	
1	0	0	0	0	64	
2	0	0	0	0	64	
3	0	0	0	0	64	
4	0	0	0	0	64	
5	0	0	0	0	64	
6	0	0	0	0	64	
7	0	0	0	0	64	
8	0	0	0	0	64	
9	0	0	0	0	64	
10	0	0	0	0	64	
11	0	0	0	0	63	
12	0	0	0	0	64	
13	0	0	0	0	63	
14	0	0	0	0	64	
15	0	0	0	0	63	
0	0	0	0	0	64	
1	0	0	0	0	63	
2	0	0	0	0	63	
3	0	0	0	0	63	
4	0	0	0	0	63	
5	0	0	0	0	63	
6	0	0	0	0	63	
7	0	0	0	0	63	
8	0	0	0	0	63	
9	0	0	0	0	63	
10	0	0	0	0	63	
11	0	0	0	0	63	
12	0	0	0	0	63	
13	0	0	0	0	63	
14	0	0	0	0	63	
15	0	0	0	0	63	
0	0	0	0	0	63	
1	0	0	0	0	63	
2	0	0	0	0	63	
3	0	0	0	0	62	
4	0	0	0	0	63	
5	0	0	0	0	62	
6	0	0	0	0	63	
7	0	0	0	0	62	
8	0	0	0	0	62	
9	0	0	0	0	62	
10	0	0	0	0	62	
11	0	0	0	0	62	
12	0	0	0	0	62	
13	0	0	0	0	62	
14	0	0	0	0	62	
15	0	0	0	0	62	
0	0	0	0	0	62	
1	0	0	0	0	61	
2	0	0	0	0	62	
3	0	0	0	0	61	
4	0	0	0	0	62	
5	0	0	0	0	61	
6	0	0	0	0	61	
7	0	0	0	0	61	
8	0	0	0	0	61	
9	0	0	0	0	61	
10	0	0	0	0	61	
11	0	0	0	0	61	
12	0	0	0	0	61	
13	0	0	0	0	61	
14	0	0	0	0	61	
15	0	0	0	0	61	
0	0	0	0	0	61	
1	0	0	0	0	61	
2	0	0	0	0	61	
3	0	0	0	0	61	
4	0	0	0	0	61	
5	0	0	0	0	60	
6	0	0	0	0	61	
7	0	0	0	0	60	
8	0	0	0	0	61	
9	0	0	0	0	60	
10	0	0	0	0	61	
11	0	0	0	0	60	
12	0	0	0	0	60	
13	0	0	0	0	60	
14	0	0	0	0	61	
15	0	0	0	0	60	
0	0	0	0	0	60	
1	0	0	0	0	60	
2	0	0	0	0	60	
3	0	0	0	0	60	
4	0	0	0	0	60	
5	0	0	0	0	60	
6	0	0	0	0	60	
7	0	0	0	0	60	
8	0	0	0	0	60	
9	0	0	0	0	60	
10	0	0	0	0	60	
11	0	0	0	0	60	
12	0	0	0	0	60	
13	0	0	0	0	60	
14	0	0	0	0	60	
15	0	0	0	0	60	
0	0	0	0	0	60	
1	0	0	0	0	60	
2	0	0	0	0	60	
3	0	0	0	0	60	
4	0	0	0	0	60	
5	0	0	0	0	60	
6	0	0	0	0	60	
7	0	0	0	0	60	
8	0	0	0	0	60	
9	0	0	0	0	59	
10	0	0	0	0	60	
11	0	0	0	0	60	
12	0	0	0	0	60	
13	0	0	0	0	60	
14	0	0	0	0	60	
15	0	0	0	0	60	
0	0	0	0	0	60	
1	0	0	0	0	59	
2	0	0	0	0	59	
3	0	0	0	0	59	
4	0	0	0	0	60	
5	0	0	0	0	59	
6	0	0	0	0	60	
7	0	0	0	0	59	
8	0	0	0	0	60	
9	0	0	0	0	59	
10	0	0	0	0	60	
11	0	0	0	0	59	
12	0	0	0	0	59	
13	0	0	0	0	59	
14	0	0	0	0	59	
15	0	0	0	0	59	
0	0	0	0	0	59	
1	0	0	0	0	59	
2	0	0	0	0	59	
3	0	0	0	0	59	
4	0	0	0	0	59	
5	0	0	0	0	59	
6	0	0	0	0	59	
7	0	0	0	0	59	
8	0	0	0	0	59	
9	0	0	0	0	59	
10	0	0	0	0	59	
11	0	0	0	0	59	
12	0	0	0	0	59	
13	0	0	0	0	59	
14	0	0	0	0	59	
15	0	0	0	0	59	
0	0	0	0	0	59	
1	0	0	0	0	58	
2	0	0	0	0	59	
3	0	0	0	0	58	
4	0	0	0	0	59	
5	0	0	0	0	58	
6	0	0	0	0	59	
7	0	0	0	0	58	
8	0	0	0	0	59	
9	0	0	0	0	58	
10	0	0	0	0	59	
11	0	0	0	0	58	
12	0	0	0	0	58	
13	0	0	0	0	58	
14	0	0	0	0	58	
15	0	0	0	0	58	
0	0	0	0	0	58	
1	0	0	0	0	58	
2	0	0	0	0	58	
3	0	0	0	0	58	
4	0	0	0	0	58	
5	0	0	0	0	58	
6	0	0	0	0	58	
7	0	0	0	0	58	
8	0	0	0	0	58	
9	0	0	0	0	58	
10	0	0	0	0	58	
11	0	0	0	0	58	
12	0	0	0	0	58	
13	0	0	0	0	58	
14	0	0	0	0	58	
15	0	0	0	0	58	
0	0	0	0	0	58	
1	0	0	0	0	58	
2	0	0	0	0	58	
3	0	0	0	0	58	
4	0	0	0	0	58	
5	0	0	0	0	58	
6	0	0	0	0	58	
7	0	0	0	0	58	
8	0	0	0	0	58	
9	0	0	0	0	58	
10	0	0	0	0	57	
11	0	0	0	0	58	
12	0	0	0	0	58	
13	0	0	0	0	57	
14	0	0	0	0	58	
15	0	0	0	0	57	
0	0	0	0	0	58	
1	0	0	0	0	57	
2	0	0	0	0	58	
3	0	0	0	0	57	
4	0	0	0	0	57	
5	0	0	0	0	57	
6	0	0	0	0	57	
7	0	0	0	0	57	
8	0	0	0	0	57	
9	0	0	0	0	57	
10	0	0	0	0	57	
11	0	0	0	0	57	
12	0	0	0	0	57	
13	0	0	0	0	57	
14	0	0	0	0	57	
15	0	0	0	0	57	
0	0	0	0	0	57	
1	0	0	0	0	57	
2	0	0	0	0	57	
3	0	0	0	0	57	
4	0	0	0	0	57	
5	0	0	0	0	57	
6	0	0	0	0	57	
7	0	0	0	0	57	
8	0	0	0	0	57	
9	0	0	0	0	57	
10	0	0	0	0	57	
11	0	0	0	0	57	
12	0	0	0	0	57	
13	0	0	0	0	56	
14	0	0	0	0	57	
15	0	0	0	0	56	
0	0	0	0	0	56	
1	0	0	0	0	56	
2	0	0	0	0	57	
3	0	0	0	0	56	
4	0	0	0	0	56	
5	0	0	0	0	56	
6	0	0	0	0	56	
7	0	0	0	0	56	
8	0	0	0	0	56	
9	0	0	0	0	56	
10	0	0	0	0	56	
11	0	0	0	0	56	
12	0	0	0	0	56	
13	0	0	0	0	56	
14	0	0	0	0	56	
15	0	0	0	0	56	
0	0	0	0	0	56	
1	0	0	0	0	56	
2	0	0	0	0	56	
3	0	0	0	0	56	
4	0	0	0	0	56	
5	0	0	0	0	56	
6	0	0	0	0	56	
7	0	0	0	0	56	
8	0	0	0	0	56	
9	0	0	0	0	56	
10	0	0	0	0	56	
11	0	0	0	0	55	
12	0	0	0	0	56	
13	0	0	0	0	55	
14	0	0	0	0	56	
15	0	0	0	0	55	
0	0	0	0	0	55	
1	0	0	0	0	55	
2	0	0	0	0	55	
3	0	0	0	0	55	
4	0	0	0	0	55	
5	0	0	0	0	55	
6	0	0	0	0	55	
7	0	0	0	0	55	
8	0	0	0	0	55	
9	0	0	0	0	55	
10	0	0	0	0	55	
11	0	0	0	0	55	
12	0	0	0	0	55	
13	0	0	0	0	54	
14	0	0	0	0	55	
15	0	0	0	0	54	
0	0	0	0	0	55	
1	0	0	0	0	54	
2	0	0	0	0	55	
3	0	0	0	0	54	
4	0	0	0	0	55	
5	0	0	0	0	54	
6	0	0	0	0	54	
7	0	0	0	0	54	
8	0	0	0	0	54	
9	0	0	0	0	54	
10	0	0	0	0	54	
11	0	0	0	0	54	
12	0	0	0	0	54	
13	0	0	0	0	54	
14	0	0	0	0	54	
15	0	0	0	0	54	
0	0	0	0	0	54	
1	0	0	0	0	54	
2	0	0	0	0	54	
3	0	0	0	0	54	
4	0	0	0	0	54	
5	0	0	0	0	53	
6	0	0	0	0	54	
7	0	0	0	0	53	
8	0	0	0	0	54	
9	0	0	0	0	53	
10	0	0	0	0	54	
11	0	0	0	0	53	
12	0	0	0	0	54	
13	0	0	0	0	53	
14	0	0	0	0	53	
15	0	0	0	0	53	
0	0	0	0	0	53	
1	0	0	0	0	53	
2	0	0	0	0	53	
3	0	0	0	0	53	
4	0	0	0	0	53	
5	0	0	0	0	53	
6	0	0	0	0	53	
7	0	0	0	0	53	
8	0	0	0	0	53	
9	0	0	0	0	53	
10	0	0	0	0	53	
11	0	0	0	0	52	
12	0	0	0	0	53	
13	0	0	0	0	53	
14	0	0	0	0	53	
15	0	0	0	0	52	
0	0	0	0	0	53	
1	0	0	0	0	52	
2	0	0	0	0	53	
3	0	0	0	0	52	
4	0	0	0	0	53	
5	0	0	0	0	52	
6	0	0	0	0	53	
7	0	0	0	0	52	
8	0	0	0	0	52	
9	0	0	0	0	52	
10	0	0	0	0	52	
11	0	0	0	0	52	
12	0	0	0	0	52	
13	0	0	0	0	52	
14	0	0	0	0	53	
15	0	0	0	0	52	
0	0	0	0	0	53	
1	0	0	0	0	52	
2	0	0	0	0	52	
3	0	0	0	0	52	
4	0	0	0	0	53	
5	0	0	0	0	52	
6	0	0	0	0	53	
7	0	0	0	0	52	
8	0	0	0	0	53	
9	0	0	0	0	52	
10	0	0	0	0	53	
11	0	0	0	0	52	
12	0	0	0	0	53	
13	0	0	0	0	52	
14	0	0	0	0	52	
15	0	0	0	0	52	
0	0	0	0	0	53	
1	0	0	0	0	52	
2	0	0	0	0	53	
3	0	0	0	0	52	
4	0	0	0	0	53	
5	0	0	0	0	52	
6	0	0	0	0	53	
7	0	0	0	0	52	
8	0	0	0	0	53	
9	0	0	0	0	52	
10	0	0	0	0	52	
11	0	0	0	0	52	
12	0	0	0	0	52	
13	0	0	0	0	52	
14	0	0	0	0	52	
15	0	0	0	0	52	
0	0	0	0	0	52	
1	0	0	0	0	52	
2	0	0	0	0	52	
3	0	0	0	0	52	
4	0	0	0	0	52	
5	0	0	0	0	52	
6	0	0	0	0	52	
7	0	0	0	0	52	
8	0	0	0	0	52	
9	0	0	0	0	52	
10	0	0	0	0	52	
11	0	0	0	0	51	
12	0	0	0	0	52	
13	0	0	0	0	51	
14	0	0	0	0	52	
15	0	0	0	0	51	
0	0	0	0	0	52	
1	0	0	0	0	51	
2	0	0	0	0	52	
3	0	0	0	0	51	
4	0	0	0	0	52	
5	0	0	0	0	51	
6	0	0	0	0	51	
7	0	0	0	0	51	
8	0	0	0	0	51	
9	0	0	0	0	51	
10	0	0	0	0	51	
11	0	0	0	0	51	
12	0	0	0	0	51	
13	0	0	0	0	51	
14	0	0	0	0	51	
15	0	0	0	0	51	
0	0	0	0	0	51	
1	0	0	0	0	51	
2	0	0	0	0	51	
3	0	0	0	0	51	
4	0	0	0	0	51	
5	0	0	0	0	51	
6	0	0	0	0	51	
7	0	0	0	0	51	
8	0	0	0	0	51	
9	0	0	0	0	51	
10	0	0	0	0	51	
11	0	0	0	0	50	
12	0	0	0	0	51	
13	0	0	0	0	50	
14	0	0	0	0	51	
15	0	0	0	0	50	
0	0	0	0	0	50	
1	0	0	0	0	50	
2	0	0	0	0	50	
3	0	0	0	0	50	
4	0	0	0	0	50	
5	0	0	0	0	50	
6	0	0	0	0	50	
7	0	0	0	0	49	
8	0	0	0	0	50	
9	0	0	0	0	49	
10	0	0	0	0	50	
11	0	0	0	0	49	
12	0	0	0	0	50	
13	0	0	0	0	49	
14	0	0	0	0	49	
15	0	0	0	0	49	
0	0	0	0	0	49	
1	0	0	0	0	49	
2	0	0	0	0	49	
3	0	0	0	0	49	
4	0	0	0	0	49	
5	0	0	0	0	49	
6	0	0	0	0	49	
7	0	0	0	0	49	
8	0	0	0	0	49	
9	0	0	0	0	49	
10	0	0	0	0	49	
11	0	0	0	0	49	
12	0	0	0	0	49	
13	0	0	0	0	49	
14	0	0	0	0	49	
15	0	0	0	0	49	
0	0	0	0	0	49	
1	0	0	0	0	49	
2	0	0	0	0	49	
3	0	0	0	0	48	
4	0	0	0	0	49	
5	0	0	0	0	49	
6	0	0	0	0	49	
7	0	0	0	0	48	
8	0	0	0	0	49	
9	0	0	0	0	48	
10	0	0	0	0	49	
11	0	0	0	0	48	
12	0	0	0	0	49	
13	0	0	0	0	48	
14	0	0	0	0	49	
15	0	0	0	0	48	
0	0	0	0	0	49	
1	0	0	0	0	48	
2	0	0	0	0	49	
3	0	0	0	0	48	
4	0	0	0	0	49	
5	0	0	0	0	48	
6	0	0	0	0	48	
7	0	0	0	0	48	
8	0	0	0	0	48	
9	0	0	0	0	48	
10	0	0	0	0	49	
11	0	0	0	0	48	
12	0	0	0	0	48	
13	0	0	0	0	48	
14	0	0	0	0	48	
15	0	0	0	0	48	
0	0	0	0	0	48	
1	0	0	0	0	48	
2	0	0	0	0	48	
3	0	0	0	0	48	
4	0	0	0	0	49	
5	0	0	0	0	48	
6	0	0	0	0	48	
7	0	0	0	0	48	
8	0	0	0	0	49	
9	0	0	0	0	48	
10	0	0	0	0	48	
11	0	0	0	0	48	
12	0	0	0	0	48	
13	0	0	0	0	48	
14	0	0	0	0	48	
15	0	0	0	0	48	
0	0	0	0	0	49	
1	0	0	0	0	48	
2	0	0	0	0	49	
3	0	0	0	0	48	
4	0	0	0	0	49	
5	0	0	0	0	48	
6	0	0	0	0	49	
7	0	0	0	0	48	
8	0	0	0	0	49	
9	0	0	0	0	48	
10	0	0	0	0	49	
11	0	0	0	0	48	
12	0	0	0	0	49	
13	0	0	0	0	48	
14	0	0	0	0	49	
15	0	0	0	0	48	
0	0	0	0	0	49	
1	0	0	0	0	48	
2	0	0	0	0	49	
3	0	0	0	0	48	
4	0	0	0	0	48	
5	0	0	0	0	48	
6	0	0	0	0	48	
7	0	0	0	0	48	
8	0	0	0	0	48	
9	0	0	0	0	48	
10	0	0	0	0	48	
11	0	0	0	0	48	
12	0	0	0	0	48	
13	0	0	0	0	48	
14	0	0	0	0	48	
15	0	0	0	0	48	
0	0	0	0	0	48	
1	0	0	0	0	48	
2	0	0	0	0	48	
3	0	0	0	0	48	
4	0	0	0	0	48	
5	0	0	0	0	48	
6	0	0	0	0	48	
7	0	0	0	0	48	
8	0	0	0	0	48	
9	0	0	0	0	48	
10	0	0	0	0	48	
11	0	0	0	0	48	
12	0	0	0	0	48	
13	0	0	0	0	47	
14	0	0	0	0	48	
15	0	0	0	0	48	
0	0	0	0	0	48	
1	0	0	0	0	47	
2	0	0	0	0	48	
3	0	0	0	0	47	
4	0	0	0	0	48	
5	0	0	0	0	47	
6	0	0	0	0	48	
7	0	0	0	0	47	
8	0	0	0	0	48	
9	0	0	0	0	47	
10	0	0	0	0	47	
11	0	0	0	0	47	
12	0	0	0	0	47	
13	0	0	0	0	47	
14	0	0	0	0	47	
15	0	0	0	0	47	
0	0	0	0	0	47	
1	0	0	0	0	47	
2	0	0	0	0	47	
3	0	0	0	0	47	
4	0	0	0	0	47	
5	0	0	0	0	47	
6	0	0	0	0	47	
7	0	0	0	0	47	
8	0	0	0	0	47	
9	0	0	0	0	47	
10	0	0	0	0	47	
11	0	0	0	0	47	
12	0	0	0	0	47	
13	0	0	0	0	47	
14	0	0	0	0	47	
15	0	0	0	0	46	
0	0	0	0	0	47	
1	0	0	0	0	46	
2	0	0	0	0	47	
3	0	0	0	0	46	
4	0	0	0	0	47	
5	0	0	0	0	46	
6	0	0	0	0	46	
7	0	0	0	0	46	
8	0	0	0	0	46	
9	0	0	0	0	46	
10	0	0	0	0	46	
11	0	0	0	0	46	
12	0	0	0	0	46	
13	0	0	0	0	46	
14	0	0	0	0	46	
15	0	0	0	0	46	
0	0	0	0	0	46	
1	0	0	0	0	46	
2	0	0	0	0	46	
3	0	0	0	0	45	
4	0	0	0	0	46	
5	0	0	0	0	45	
6	0	0	0	0	46	
7	0	0	0	0	45	
8	0	0	0	0	46	
9	0	0	0	0	45	
10	0	0	0	0	46	
11	0	0	0	0	45	
12	0	0	0	0	45	
13	0	0	0	0	45	
14	0	0	0	0	45	
15	0	0	0	0	45	
0	0	0	0	0	45	
1	0	0	0	0	45	
2	0	0	0	0	45	
3	0	0	0	0	45	
4	0	0	0	0	45	
5	0	0	0	0	45	
6	0	0	0	0	45	
7	0	0	0	0	45	
8	0	0	0	0	45	
9	0	0	0	0	45	
10	0	0	0	0	45	
11	0	0	0	0	45	
12	0	0	0	0	45	
13	0	0	0	0	45	
14	0	0	0	0	45	
15	0	0	0	0	45	
0	0	0	0	0	45	
1	0	0	0	0	45	
2	0	0	0	0	45	
3	0	0	0	0	45	
4	0	0	0	0	45	
5	0	0	0	0	45	
6	0	0	0	0	45	
7	0	0	0	0	44	
8	0	0	0	0	45	
9	0	0	0	0	44	
10	0	0	0	0	45	
11	0	0	0	0	45	
12	0	0	0	0	44	
13	0	0	0	0	44	
14	0	0	0	0	45	
15	0	0	0	0	44	
0	0	0	0	0	45	
1	0	0	0	0	44	
2	0	0	0	0	45	
3	0	0	0	0	44	
4	0	0	0	0	44	
5	0	0	0	0	44	
6	0	0	0	0	45	
7	0	0	0	0	44	
8	0	0	0	0	45	
9	0	0	0	0	44	
10	0	0	0	0	44	
11	0	0	0	0	44	
12	0	0	0	0	44	
13	0	0	0	0	44	
14	0	0	0	0	44	
15	0	0	0	0	44	
0	0	0	0	0	44	
1	0	0	0	0	44	
2	0	0	0	0	44	
3	0	0	0	0	44	
4	0	0	0	0	44	
5	0	0	0	0	44	
6	0	0	0	0	44	
7	0	0	0	0	44	
8	0	0	0	0	44	
9	0	0	0	0	44	
10	0	0	0	0	44	
11	0	0	0	0	44	
12	0	0	0	0	44	
13	0	0	0	0	44	
14	0	0	0	0	44	
15	0	0	0	0	44	
0	0	0	0	0	44	
1	0	0	0	0	44	
2	0	0	0	0	44	
3	0	0	0	0	44	
4	0	0	0	0	44	
5	0	0	0	0	44	
6	0	0	0	0	44	
7	0	0	0	0	44	
8	0	0	0	0	44	
9	0	0	0	0	44	
10	0	0	0	0	44	
11	0	0	0	0	44	
12	0	0	0	0	44	
13	0	0	0	0	44	
14	0	0	0	0	44	
15	0	0	0	0	44	
0	0	0	0	0	44	
1	0	0	0	0	44	
2	0	0	0	0	44	
3	0	0	0	0	44	
4	0	0	0	0	44	
5	0	0	0	0	44	
6	0	0	0	0	44	
7	0	0	0	0	44	
8	0	0	0	0	44	
9	0	0	0	0	44	
10	0	0	0	0	44	
11	0	0	0	0	44	
12	0	0	0	0	44	
13	0	0	0	0	44	
14	0	0	0	0	44	
15	0	0	0	0	44	
0	0	0	0	0	44	
1	0	0	0	0	44	
2	0	0	0	0	44	
3	0	0	0	0	44	
4	0	0	0	0	44	
5	0	0	0	0	44	
6	0	0	0	0	44	
7	0	0	0	0	44	
8	0	0	0	0	44	
9	0	0	0	0	44	
10	0	0	0	0	44	
11	0	0	0	0	44	
12	0	0	0	0	44	
13	0	0	0	0	44	
14	0	0	0	0	44	
15	0	0	0	0	44	
0	0	0	0	0	44	
1	0	0	0	0	44	
2	0	0	0	0	44	
3	0	0	0	0	44	
4	0	0	0	0	44	
5	0	0	0	0	43	
6	0	0	0	0	44	
7	0	0	0	0	43	
8	0	0	0	0	44	
9	0	0	0	0	44	
10	0	0	0	0	43	
11	0	0	0	0	43	
12	0	0	0	0	44	
13	0	0	0	0	43	
14	0	0	0	0	44	
15	0	0	0	0	43	
0	0	0	0	0	44	
1	0	0	0	0	43	
2	0	0	0	0	44	
3	0	0	0	0	43	
4	0	0	0	0	44	
5	0	0	0	0	43	
6	0	0	0	0	43	
7	0	0	0	0	43	
8	0	0	0	0	43	
9	0	0	0	0	43	
10	0	0	0	0	43	
11	0	0	0	0	43	
12	0	0	0	0	43	
13	0	0	0	0	43	
14	0	0	0	0	43	
15	0	0	0	0	43	
0	0	0	0	0	43	
1	0	0	0	0	43	
2	0	0	0	0	43	
3	0	0	0	0	43	
4	0	0	0	0	43	
5	0	0	0	0	43	
6	0	0	0	0	43	
7	0	0	0	0	43	
8	0	0	0	0	43	
9	0	0	0	0	43	
10	0	0	0	0	43	
11	0	0	0	0	43	
12	0	0	0	0	43	
13	0	0	0	0	42	
14	0	0	0	0	43	
15	0	0	0	0	43	
0	0	0	0	0	43	
1	0	0	0	0	42	
2	0	0	0	0	43	
3	0	0	0	0	42	
4	0	0	0	0	43	
5	0	0	0	0	42	
6	0	0	0	0	43	
7	0	0	0	0	42	
8	0	0	0	0	42	
9	0	0	0	0	42	
10	0	0	0	0	42	
11	0	0	0	0	42	
12	0	0	0	0	42	
13	0	0	0	0	42	
14	0	0	0	0	42	
15	0	0	0	0	41	
0	0	0	0	0	42	
1	0	0	0	0	41	
2	0	0	0	0	42	
3	0	0	0	0	41	
4	0	0	0	0	42	
5	0	0	0	0	41	
6	0	0	0	0	41	
7	0	0	0	0	41	
8	0	0	0	0	41	
9	0	0	0	0	41	
10	0	0	0	0	41	
11	0	0	0	0	41	
12	0	0	0	0	41	
13	0	0	0	0	41	
14	0	0	0	0	41	
15	0	0	0	0	41	
0	0	0	0	0	41	
1	0	0	0	0	41	
2	0	0	0	0	41	
3	0	0	0	0	41	
4	0	0	0	0	41	
5	0	0	0	0	41	
6	0	0	0	0	41	
7	0	0	0	0	41	
8	0	0	0	0	41	
9	0	0	0	0	41	
10	0	0	0	0	41	
11	0	0	0	0	41	
12	0	0	0	0	41	
13	0	0	0	0	40	
14	0	0	0	0	41	
15	0	0	0	0	41	
0	0	0	0	0	41	
1	0	0	0	0	40	
2	0	0	0	0	41	
3	0	0	0	0	40	
4	0	0	0	0	41	
5	0	0	0	0	40	
6	0	0	0	0	40	
7	0	0	0	0	40	
8	0	0	0	0	41	
9	0	0	0	0	40	
10	0	0	0	0	40	
11	0	0	0	0	40	
12	0	0	0	0	40	
13	0	0	0	0	40	
14	0	0	0	0	40	
15	0	0	0	0	40	
0	0	0	0	0	40	
1	0	0	0	0	40	
2	0	0	0	0	40	
3	0	0	0	0	40	
4	0	0	0	0	40	
5	0	0	0	0	40	
6	0	0	0	0	40	
7	0	0	0	0	40	
8	0	0	0	0	40	
9	0	0	0	0	40	
10	0	0	0	0	40	
11	0	0	0	0	40	
12	0	0	0	0	40	
13	0	0	0	0	40	
14	0	0	0	0	40	
15	0	0	0	0	40	
0	0	0	0	0	40	
1	0	0	0	0	40	
2	0	0	0	0	40	
3	0	0	0	0	40	
4	0	0	0	0	40	
5	0	0	0	0	39	
6	0	0	0	0	40	
7	0	0	0	0	39	
8	0	0	0	0	40	
9	0	0	0	0	40	
10	0	0	0	0	40	
11	0	0	0	0	39	
12	0	0	0	0	40	
13	0	0	0	0	39	
14	0	0	0	0	40	
15	0	0	0	0	39	
0	0	0	0	0	40	
1	0	0	0	0	39	
2	0	0	0	0	40	
3	0	0	0	0	39	
4	0	0	0	0	40	
5	0	0	0	0	39	
6	0	0	0	0	40	
7	0	0	0	0	39	
8	0	0	0	0	39	
9	0	0	0	0	39	
10	0	0	0	0	40	
11	0	0	0	0	39	
12	0	0	0	0	40	
13	0	0	0	0	39	
14	0	0	0	0	40	
15	0	0	0	0	39	
0	0	0	0	0	40	
1	0	0	0	0	39	
2	0	0	0	0	40	
3	0	0	0	0	39	
4	0	0	0	0	40	
5	0	0	0	0	39	
6	0	0	0	0	40	
7	0	0	0	0	39	
8	0	0	0	0	39	
9	0	0	0	0	39	
10	0	0	0	0	39	
11	0	0	0	0	39	
12	0	0	0	0	39	
13	0	0	0	0	39	
14	0	0	0	0	39	
15	0	0	0	0	39	
0	0	0	0	0	39	
1	0	0	0	0	39	
2	0	0	0	0	39	
3	0	0	0	0	39	
4	0	0	0	0	39	
5	0	0	0	0	39	
6	0	0	0	0	39	
7	0	0	0	0	39	
8	0	0	0	0	39	
9	0	0	0	0	39	
10	0	0	0	0	39	
11	0	0	0	0	39	
12	0	0	0	0	39	
13	0	0	0	0	39	
14	0	0	0	0	39	
15	0	0	0	0	39	
0	0	0	0	0	39	
1	0	0	0	0	39	
2	0	0	0	0	39	
3	0	0	0	0	39	
4	0	0	0	0	39	
5	0	0	0	0	39	
6	0	0	0	0	39	
7	0	0	0	0	39	
8	0	0	0	0	39	
9	0	0	0	0	39	
10	0	0	0	0	39	
11	0	0	0	0	39	
12	0	0	0	0	40	
13	0	0	0	0	39	
14	0	0	0	0	39	
15	0	0	0	0	39	
0	0	0	0	0	39	
1	0	0	0	0	39	
2	0	0	0	0	39	
3	0	0	0	0	39	
4	0	0	0	0	40	
5	0	0	0	0	39	
6	0	0	0	0	39	
7	0	0	0	0	39	
8	0	0	0	0	39	
9	0	0	0	0	39	
10	0	0	0	0	39	
11	0	0	0	0	39	
12	0	0	0	0	39	
13	0	0	0	0	39	
14	0	0	0	0	39	
15	0	0	0	0	39	
0	0	0	0	0	39	
1	0	0	0	0	39	
2	0	0	0	0	39	
3	0	0	0	0	39	
4	0	0	0	0	39	
5	0	0	0	0	39	
6	0	0	0	0	39	
7	0	0	0	0	39	
8	0	0	0	0	39	
9	0	0	0	0	39	
10	0	0	0	0	39	
11	0	0	0	0	39	
12	0	0	0	0	39	
13	0	0	0	0	39	
14	0	0	0	0	39	
15	0	0	0	0	39	
0	0	0	0	0	39	
1	0	0	0	0	39	
2	0	0	0	0	39	
3	0	0	0	0	39	
4	0	0	0	0	39	
5	0	0	0	0	39	
6	0	0	0	0	39	
7	0	0	0	0	39	
8	0	0	0	0	39	
9	0	0	0	0	39	
10	0	0	0	0	39	
11	0	0	0	0	39	
12	0	0	0	0	39	
13	0	0	0	0	39	
14	0	0	0	0	39	
15	0	0	0	0	39	
0	0	0	0	0	39	
1	0	0	0	0	39	
2	0	0	0	0	39	
3	0	0	0	0	39	
4	0	0	0	0	39	
5	0	0	0	0	39	
6	0	0	0	0	39	
7	0	0	0	0	39	
8	0	0	0	0	39	
9	0	0	0	0	39	
10	0	0	0	0	39	
11	0	0	0	0	39	
12	0	0	0	0	39	
13	0	0	0	0	39	
14	0	0	0	0	39	
15	0	0	0	0	39	
0	0	0	0	0	39	
1	0	0	0	0	39	
2	0	0	0	0	39	
3	0	0	0	0	39	
4	0	0	0	0	39	
5	0	0	0	0	39	
6	0	0	0	0	39	
7	0	0	0	0	38	
8	0	0	0	0	39	
9	0	0	0	0	39	
10	0	0	0	0	39	
11	0	0	0	0	38	
12	0	0	0	0	39	
13	0	0	0	0	38	
14	0	0	0	0	39	
15	0	0	0	0	38	
0	0	0	0	0	39	
1	0	0	0	0	38	
2	0	0	0	0	39	
3	0	0	0	0	38	
4	0	0	0	0	38	
5	0	0	0	0	38	
6	0	0	0	0	38	
7	0	0	0	0	38	
8	0	0	0	0	38	
9	0	0	0	0	38	
10	0	0	0	0	38	
11	0	0	0	0	38	
12	0	0	0	0	38	
13	0	0	0	0	38	
14	0	0	0	0	38	
15	0	0	0	0	38	
0	0	0	0	0	38	
1	0	0	0	0	38	
2	0	0	0	0	38	
3	0	0	0	0	38	
4	0	0	0	0	38	
5	0	0	0	0	38	
6	0	0	0	0	38	
7	0	0	0	0	38	
8	0	0	0	0	38	
9	0	0	0	0	38	
10	0	0	0	0	38	
11	0	0	0	0	38	
12	0	0	0	0	38	
13	0	0	0	0	38	
14	0	0	0	0	37	
15	0	0	0	0	37	
0	0	0	0	0	38	
1	0	0	0	0	37	
2	0	0	0	0	38	
3	0	0	0	0	37	
4	0	0	0	0	38	
5	0	0	0	0	37	
6	0	0	0	0	38	
7	0	0	0	0	37	
8	0	0	0	0	37	
9	0	0	0	0	37	
10	0	0	0	0	37	
11	0	0	0	0	37	
12	0	0	0	0	37	
13	0	0	0	0	37	
14	0	0	0	0	37	
15	0	0	0	0	37	
0	0	0	0	0	37	
1	0	0	0	0	36	
2	0	0	0	0	37	
3	0	0	0	0	36	
4	0	0	0	0	37	
5	0	0	0	0	36	
6	0	0	0	0	36	
7	0	0	0	0	36	
8	0	0	0	0	37	
9	0	0	0	0	36	
10	0	0	0	0	36	
11	0	0	0	0	36	
12	0	0	0	0	36	
13	0	0	0	0	36	
14	0	0	0	0	36	
15	0	0	0	0	36	
0	0	0	0	0	36	
1	0	0	0	0	36	
2	0	0	0	0	36	
3	0	0	0	0	36	
4	0	0	0	0	36	
5	0	0	0	0	36	
6	0	0	0	0	36	
7	0	0	0	0	36	
8	0	0	0	0	36	
9	0	0	0	0	36	
10	0	0	0	0	36	
11	0	0	0	0	36	
12	0	0	0	0	36	
13	0	0	0	0	36	
14	0	0	0	0	36	
15	0	0	0	0	36	
0	0	0	0	0	36	
1	0	0	0	0	36	
2	0	0	0	0	36	
3	0	0	0	0	36	
4	0	0	0	0	36	
5	0	0	0	0	36	
6	0	0	0	0	36	
7	0	0	0	0	35	
8	0	0	0	0	36	
9	0	0	0	0	35	
10	0	0	0	0	36	
11	0	0	0	0	35	
12	0	0	0	0	36	
13	0	0	0	0	35	
14	0	0	0	0	36	
15	0	0	0	0	35	
0	0	0	0	0	36	
1	0	0	0	0	36	
2	0	0	0	0	36	
3	0	0	0	0	35	
4	0	0	0	0	36	
5	0	0	0	0	36	
6	0	0	0	0	36	
7	0	0	0	0	35	
8	0	0	0	0	36	
9	0	0	0	0	35	
10	0	0	0	0	36	
11	0	0	0	0	35	
12	0	0	0	0	36	
13	0	0	0	0	35	
14	0	0	0	0	36	
15	0	0	0	0	35	
0	0	0	0	0	36	
1	0	0	0	0	35	
2	0	0	0	0	35	
3	0	0	0	0	35	
4	0	0	0	0	36	
5	0	0	0	0	35	
6	0	0	0	0	35	
7	0	0	0	0	35	
8	0	0	0	0	36	
9	0	0	0	0	35	
10	0	0	0	0	35	
11	0	0	0	0	35	
12	0	0	0	0	35	
13	0	0	0	0	35	
14	0	0	0	0	35	
15	0	0	0	0	35	
0	0	0	0	0	35	
1	0	0	0	0	35	
2	0	0	0	0	35	
3	0	0	0	0	35	
4	0	0	0	0	35	
5	0	0	0	0	35	
6	0	0	0	0	35	
7	0	0	0	0	35	
8	0	0	0	0	35	
9	0	0	0	0	35	
10	0	0	0	0	35	
11	0	0	0	0	35	
12	0	0	0	0	36	
13	0	0	0	0	35	
14	0	0	0	0	36	
15	0	0	0	0	35	
0	0	0	0	0	36	
1	0	0	0	0	35	
2	0	0	0	0	36	
3	0	0	0	0	35	
4	0	0	0	0	35	
5	0	0	0	0	35	
6	0	0	0	0	35	
7	0	0	0	0	35	
8	0	0	0	0	36	
9	0	0	0	0	35	
10	0	0	0	0	36	
11	0	0	0	0	35	
12	0	0	0	0	36	
13	0	0	0	0	35	
14	0	0	0	0	36	
15	0	0	0	0	36	
0	0	0	0	0	36	
1	0	0	0	0	35	
2	0	0	0	0	36	
3	0	0	0	0	35	
4	0	0	0	0	36	
5	0	0	0	0	35	
6	0	0	0	0	36	
7	0	0	0	0	35	
8	0	0	0	0	36	
9	0	0	0	0	36	
10	0	0	0	0	36	
11	0	0	0	0	35	
12	0	0	0	0	35	
13	0	0	0	0	35	
14	0	0	0	0	36	
15	0	0	0	0	35	
0	0	0	0	0	36	
1	0	0	0	0	35	
2	0	0	0	0	36	
3	0	0	0	0	35	
4	0	0	0	0	35	
5	0	0	0	0	35	
6	0	0	0	0	36	
7	0	0	0	0	35	
8	0	0	0	0	35	
9	0	0	0	0	35	
10	0	0	0	0	35	
11	0	0	0	0	35	
12	0	0	0	0	35	
13	0	0	0	0	35	
14	0	0	0	0	35	
15	0	0	0	0	35	
0	0	0	0	0	35	
1	0	0	0	0	35	
2	0	0	0	0	35	
3	0	0	0	0	35	
4	0	0	0	0	35	
5	0	0	0	0	35	
6	0	0	0	0	35	
7	0	0	0	0	35	
8	0	0	0	0	35	
9	0	0	0	0	35	
10	0	0	0	0	35	
11	0	0	0	0	35	
12	0	0	0	0	35	
13	0	0	0	0	35	
14	0	0	0	0	35	
15	0	0	0	0	35	
0	0	0	0	0	35	
1	0	0	0	0	35	
2	0	0	0	0	35	
3	0	0	0	0	35	
4	0	0	0	0	35	
5	0	0	0	0	35	
6	0	0	0	0	35	
7	0	0	0	0	35	
8	0	0	0	0	35	
9	0	0	0	0	35	
10	0	0	0	0	35	
11	0	0	0	0	35	
12	0	0	0	0	35	
13	0	0	0	0	35	
14	0	0	0	0	35	
15	0	0	0	0	35	
0	0	0	0	0	35	
1	0	0	0	0	34	
2	0	0	0	0	35	
3	0	0	0	0	34	
4	0	0	0	0	35	
5	0	0	0	0	34	
6	0	0	0	0	34	
7	0	0	0	0	34	
8	0	0	0	0	35	
9	0	0	0	0	34	
10	0	0	0	0	34	
11	0	0	0	0	34	
12	0	0	0	0	34	
13	0	0	0	0	34	
14	0	0	0	0	34	
15	0	0	0	0	34	
0	0	0	0	0	34	
1	0	0	0	0	34	
2	0	0	0	0	33	
3	0	0	0	0	33	
4	0	0	0	0	34	
5	0	0	0	0	33	
6	0	0	0	0	34	
7	0	0	0	0	33	
8	0	0	0	0	33	
9	0	0	0	0	33	
10	0	0	0	0	33	
11	0	0	0	0	33	
12	0	0	0	0	33	
13	0	0	0	0	33	
14	0	0	0	0	33	
15	0	0	0	0	33	
0	0	0	0	0	34	
1	0	0	0	0	33	
2	0	0	0	0	33	
3	0	0	0	0	33	
4	0	0	0	0	33	
5	0	0	0	0	33	
6	0	0	0	0	34	
7	0	0	0	0	33	
8	0	0	0	0	33	
9	0	0	0	0	33	
10	0	0	0	0	33	
11	0	0	0	0	33	
12	0	0	0	0	33	
13	0	0	0	0	33	
14	0	0	0	0	34	
15	0	0	0	0	33	
0	0	0	0	0	33	
1	0	0	0	0	33	
2	0	0	0	0	33	
3	0	0	0	0	33	
4	0	0	0	0	33	
5	0	0	0	0	33	
6	0	0	0	0	33	
7	0	0	0	0	33	
8	0	0	0	0	33	
9	0	0	0	0	33	
10	0	0	0	0	33	
11	0	0	0	0	33	
12	0	0	0	0	33	
13	0	0	0	0	33	
14	0	0	0	0	33	
15	0	0	0	0	33	
0	0	0	0	0	33	
1	0	0	0	0	33	
2	0	0	0	0	33	
3	0	0	0	0	33	
4	0	0	0	0	33	
5	0	0	0	0	33	
6	0	0	0	0	33	
7	0	0	0	0	33	
8	0	0	0	0	33	
9	0	0	0	0	33	
10	0	0	0	0	33	
11	0	0	0	0	33	
12	0	0	0	0	33	
13	0	0	0	0	33	
14	0	0	0	0	33	
15	0	0	0	0	33	
0	0	0	0	0	33	
1	0	0	0	0	33	
2	0	0	0	0	33	
3	0	0	0	0	33	
4	0	0	0	0	33	
5	0	0	0	0	33	
6	0	0	0	0	33	
7	0	0	0	0	33	
8	0	0	0	0	33	
9	0	0	0	0	33	
10	0	0	0	0	33	
11	0	0	0	0	33	
12	0	0	0	0	33	
13	0	0	0	0	33	
14	0	0	0	0	33	
15	0	0	0	0	33	
0	0	0	0	0	33	
1	0	0	0	0	33	
2	0	0	0	0	33	
3	0	0	0	0	33	
4	0	0	0	0	34	
5	0	0	0	0	33	
6	0	0	0	0	33	
7	0	0	0	0	33	
8	0	0	0	0	34	
9	0	0	0	0	33	
10	0	0	0	0	34	
11	0	0	0	0	33	
12	0	0	0	0	34	
13	0	0	0	0	33	
14	0	0	0	0	34	
15	0	0	0	0	33	
0	0	0	0	0	34	
1	0	0	0	0	33	
2	0	0	0	0	33	
3	0	0	0	0	33	
4	0	0	0	0	34	
5	0	0	0	0	33	
6	0	0	0	0	34	
7	0	0	0	0	33	
8	0	0	0	0	34	
9	0	0	0	0	33	
10	0	0	0	0	34	
11	0	0	0	0	33	
12	0	0	0	0	34	
13	0	0	0	0	33	
14	0	0	0	0	34	
15	0	0	0	0	33	
0	0	0	0	0	34	
1	0	0	0	0	33	
2	0	0	0	0	34	
3	0	0	0	0	33	
4	0	0	0	0	34	
5	0	0	0	0	33	
6	0	0	0	0	34	
7	0	0	0	0	33	
8	0	0	0	0	33	
9	0	0	0	0	33	
10	0	0	0	0	33	
11	0	0	0	0	33	
12	0	0	0	0	33	
13	0	0	0	0	33	
14	0	0	0	0	33	
15	0	0	0	0	33	
0	0	0	0	0	34	
1	0	0	0	0	33	
2	0	0	0	0	34	
3	0	0	0	0	33	
4	0	0	0	0	33	
5	0	0	0	0	33	
6	0	0	0	0	33	
7	0	0	0	0	33	
8	0	0	0	0	33	
9	0	0	0	0	33	
10	0	0	0	0	33	
11	0	0	0	0	33	
12	0	0	0	0	33	
13	0	0	0	0	33	
14	0	0	0	0	33	
15	0	0	0	0	33	
0	0	0	0	0	33	
1	0	0	0	0	33	
2	0	0	0	0	33	
3	0	0	0	0	33	
4	0	0	0	0	33	
5	0	0	0	0	33	
6	0	0	0	0	33	
7	0	0	0	0	33	
8	0	0	0	0	33	
9	0	0	0	0	33	
10	0	0	0	0	34	
11	0	0	0	0	33	
12	0	0	0	0	33	
13	0	0	0	0	33	
14	0	0	0	0	34	
15	0	0	0	0	33	
0	0	0	0	0	34	
1	0	0	0	0	34	
2	0	0	0	0	34	
3	0	0	0	0	33	
4	0	0	0	0	34	
5	0	0	0	0	33	
6	0	0	0	0	34	
7	0	0	0	0	34	
8	0	0	0	0	34	
9	0	0	0	0	34	
10	0	0	0	0	34	
11	0	0	0	0	34	
12	0	0	0	0	34	
13	0	0	0	0	34	
14	0	0	0	0	34	
15	0	0	0	0	34	
0	0	0	0	0	34	
1	0	0	0	0	34	
2	0	0	0	0	34	
3	0	0	0	0	34	
4	0	0	0	0	34	
5	0	0	0	0	34	
6	0	0	0	0	34	
7	0	0	0	0	34	
8	0	0	0	0	35	
9	0	0	0	0	34	
10	0	0	0	0	35	
11	0	0	0	0	34	
12	0	0	0	0	35	
13	0	0	0	0	34	
14	0	0	0	0	35	
15	0	0	0	0	34	
0	0	0	0	0	34	
1	0	0	0	0	35	
2	0	0	0	0	35	
3	0	0	0	0	34	
4	0	0	0	0	35	
5	0	0	0	0	35	
6	0	0	0	0	35	
7	0	0	0	0	35	
8	0	0	0	0	35	
9	0	0	0	0	35	
10	0	0	0	0	35	
11	0	0	0	0	35	
12	0	0	0	0	35	
13	0	0	0	0	35	
14	0	0	0	0	35	
15	0	0	0	0	35	
0	0	0	0	0	35	
1	0	0	0	0	35	
2	0	0	0	0	35	
3	0	0	0	0	35	
4	0	0	0	0	35	
5	0	0	0	0	35	
6	0	0	0	0	35	
7	0	0	0	0	35	
8	0	0	0	0	35	
9	0	0	0	0	35	
10	0	0	0	0	35	
11	0	0	0	0	35	
12	0	0	0	0	35	
13	0	0	0	0	35	
14	0	0	0	0	35	
15	0	0	0	0	35	
0	0	0	0	0	35	
1	0	0	0	0	35	
2	0	0	0	0	35	
3	0	0	0	0	35	
4	0	0	0	0	35	
5	0	0	0	0	35	
6	0	0	0	0	36	
7	0	0	0	0	35	
8	0	0	0	0	36	
9	0	0	0	0	35	
10	0	0	0	0	36	
11	0	0	0	0	35	
12	0	0	0	0	36	
13	0	0	0	0	35	
14	0	0	0	0	36	
15	0	0	0	0	35	
0	0	0	0	0	36	
1	0	0	0	0	35	
2	0	0	0	0	36	
3	0	0	0	0	35	
4	0	0	0	0	36	
5	0	0	0	0	35	
6	0	0	0	0	36	
7	0	0	0	0	35	
8	0	0	0	0	36	
9	0	0	0	0	35	
10	0	0	0	0	36	
11	0	0	0	0	36	
12	0	0	0	0	36	
13	0	0	0	0	36	
14	0	0	0	0	36	
15	0	0	0	0	36	
0	0	0	0	0	36	
1	0	0	0	0	36	
2	0	0	0	0	36	
3	0	0	0	0	36	
4	0	0	0	0	36	
5	0	0	0	0	36	
6	0	0	0	0	36	
7	0	0	0	0	36	
8	0	0	0	0	36	
9	0	0	0	0	36	
10	0	0	0	0	36	
11	0	0	0	0	36	
12	0	0	0	0	37	
13	0	0	0	0	36	
14	0	0	0	0	37	
15	0	0	0	0	36	
0	0	0	0	0	37	
1	0	0	0	0	37	
2	0	0	0	0	37	
3	0	0	0	0	37	
4	0	0	0	0	37	
5	0	0	0	0	37	
6	0	0	0	0	37	
7	0	0	0	0	37	
8	0	0	0	0	37	
9	0	0	0	0	37	
10	0	0	0	0	37	
11	0	0	0	0	37	
12	0	0	0	0	37	
13	0	0	0	0	37	
14	0	0	0	0	37	
15	0	0	0	0	37	
0	0	0	0	0	37	
1	0	0	0	0	37	
2	0	0	0	0	37	
3	0	0	0	0	37	
4	0	0	0	0	37	
5	0	0	0	0	37	
6	0	0	0	0	37	
7	0	0	0	0	37	
8	0	0	0	0	37	
9	0	0	0	0	37	
10	0	0	0	0	37	
11	0	0	0	0	37	
12	0	0	0	0	37	
13	0	0	0	0	37	
14	0	0	0	0	37	
15	0	0	0	0	37	
0	0	0	0	0	37	
1	0	0	0	0	37	
2	0	0	0	0	37	
3	0	0	0	0	37	
4	0	0	0	0	37	
5	0	0	0	0	37	
6	0	0	0	0	37	
7	0	0	0	0	37	
8	0	0	0	0	37	
9	0	0	0	0	37	
10	0	0	0	0	37	
11	0	0	0	0	37	
12	0	0	0	0	37	
13	0	0	0	0	37	
14	0	0	0	0	37	
15	0	0	0	0	37	
0	0	0	0	0	37	
1	0	0	0	0	37	
2	0	0	0	0	37	
3	0	0	0	0	37	
4	0	0	0	0	37	
5	0	0	0	0	37	
6	0	0	0	0	37	
7	0	0	0	0	37	
8	0	0	0	0	37	
9	0	0	0	0	37	
10	0	0	0	0	37	
11	0	0	0	0	37	
12	0	0	0	0	37	
13	0	0	0	0	37	
14	0	0	0	0	37	
15	0	0	0	0	37	
0	0	0	0	0	37	
1	0	0	0	0	37	
2	0	0	0	0	37	
3	0	0	0	0	37	
4	0	0	0	0	37	
5	0	0	0	0	37	
6	0	0	0	0	37	
7	0	0	0	0	37	
8	0	0	0	0	37	
9	0	0	0	0	37	
10	0	0	0	0	37	
11	0	0	0	0	37	
12	0	0	0	0	37	
13	0	0	0	0	37	
14	0	0	0	0	37	
15	0	0	0	0	37	
0	0	0	0	0	37	
1	0	0	0	0	36	
2	0	0	0	0	37	
3	0	0	0	0	36	
4	0	0	0	0	37	
5	0	0	0	0	36	
6	0	0	0	0	37	
7	0	0	0	0	36	
8	0	0	0	0	36	
9	0	0	0	0	36	
10	0	0	0	0	37	
11	0	0	0	0	36	
12	0	0	0	0	37	
13	0	0	0	0	36	
14	0	0	0	0	37	
15	0	0	0	0	36	
0	0	0	0	0	36	
1	0	0	0	0	36	
2	0	0	0	0	37	
3	0	0	0	0	36	
4	0	0	0	0	37	
5	0	0	0	0	36	
6	0	0	0	0	37	
7	0	0	0	0	36	
8	0	0	0	0	37	
9	0	0	0	0	36	
10	0	0	0	0	36	
11	0	0	0	0	36	
12	0	0	0	0	36	
13	0	0	0	0	36	
14	0	0	0	0	36	
15	0	0	0	0	36	
0	0	0	0	0	37	
1	0	0	0	0	36	
2	0	0	0	0	37	
3	0	0	0	0	36	
4	0	0	0	0	37	
5	0	0	0	0	36	
6	0	0	0	0	37	
7	0	0	0	0	36	
8	0	0	0	0	37	
9	0	0	0	0	36	
10	0	0	0	0	37	
11	0	0	0	0	36	
12	0	0	0	0	37	
13	0	0	0	0	36	
14	0	0	0	0	37	
15	0	0	0	0	36	
0	0	0	0	0	37	
1	0	0	0	0	37	
2	0	0	0	0	37	
3	0	0	0	0	36	
4	0	0	0	0	37	
5	0	0	0	0	37	
6	0	0	0	0	36	
7	0	0	0	0	36	
8	0	0	0	0	37	
9	0	0	0	0	37	
10	0	0	0	0	37	
11	0	0	0	0	36	
12	0	0	0	0	37	
13	0	0	0	0	37	
14	0	0	0	0	37	
15	0	0	0	0	37	
0	0	0	0	0	37	
1	0	0	0	0	37	
2	0	0	0	0	37	
3	0	0	0	0	37	
4	0	0	0	0	37	
5	0	0	0	0	37	
6	0	0	0	0	37	
7	0	0	0	0	36	
8	0	0	0	0	37	
9	0	0	0	0	36	
10	0	0	0	0	37	
11	0	0	0	0	37	
12	0	0	0	0	37	
13	0	0	0	0	37	
14	0	0	0	0	37	
15	0	0	0	0	37	
0	0	0	0	0	37	
1	0	0	0	0	37	
2	0	0	0	0	37	
3	0	0	0	0	37	
4	0	0	0	0	37	
5	0	0	0	0	37	
6	0	0	0	0	37	
7	0	0	0	0	37	
8	0	0	0	0	38	
9	0	0	0	0	37	
10	0	0	0	0	38	
11	0	0	0	0	38	
12	0	0	0	0	38	
13	0	0	0	0	37	
14	0	0	0	0	38	
15	0	0	0	0	37	
0	0	0	0	0	38	
1	0	0	0	0	37	
2	0	0	0	0	38	
3	0	0	0	0	38	
4	0	0	0	0	38	
5	0	0	0	0	38	
6	0	0	0	0	38	
7	0	0	0	0	38	
8	0	0	0	0	38	
9	0	0	0	0	38	
10	0	0	0	0	38	
11	0	0	0	0	38	
12	0	0	0	0	38	
13	0	0	0	0	38	
14	0	0	0	0	38	
15	0	0	0	0	38	
0	0	0	0	0	38	
1	0	0	0	0	38	
2	0	0	0	0	38	
3	0	0	0	0	38	
4	0	0	0	0	38	
5	0	0	0	0	38	
6	0	0	0	0	38	
7	0	0	0	0	38	
8	0	0	0	0	38	
9	0	0	0	0	38	
10	0	0	0	0	38	
11	0	0	0	0	38	
12	0	0	0	0	37	
13	0	0	0	0	38	
14	0	0	0	0	38	
15	0	0	0	0	37	
0	0	0	0	0	38	
1	0	0	0	0	37	
2	0	0	0	0	38	
3	0	0	0	0	37	
4	0	0	0	0	38	
5	0	0	0	0	37	
6	0	0	0	0	38	
7	0	0	0	0	37	
8	0	0	0	0	38	
9	0	0	0	0	37	
10	0	0	0	0	38	
11	0	0	0	0	38	
12	0	0	0	0	38	
13	0	0	0	0	37	
14	0	0	0	0	38	
15	0	0	0	0	37	
0	0	0	0	0	38	
1	0	0	0	0	37	
2	0	0	0	0	38	
3	0	0	0	0	37	
4	0	0	0	0	37	
5	0	0	0	0	37	
6	0	0	0	0	38	
7	0	0	0	0	37	
8	0	0	0	0	38	
9	0	0	0	0	37	
10	0	0	0	0	38	
11	0	0	0	0	37	
12	0	0	0	0	38	
13	0	0	0	0	37	
14	0	0	0	0	37	
15	0	0	0	0	37	
0	0	0	0	0	37	
1	0	0	0	0	37	
2	0	0	0	0	37	
3	0	0	0	0	37	
4	0	0	0	0	37	
5	0	0	0	0	37	
6	0	0	0	0	37	
7	0	0	0	0	36	
8	0	0	0	0	37	
9	0	0	0	0	37	
10	0	0	0	0	36	
11	0	0	0	0	37	
12	0	0	0	0	37	
13	0	0	0	0	37	
14	0	0	0	0	37	
15	0	0	0	0	36	
0	0	0	0	0	37	
1	0	0	0	0	36	
2	0	0	0	0	37	
3	0	0	0	0	36	
4	0	0	0	0	37	
5	0	0	0	0	36	
6	0	0	0	0	37	
7	0	0	0	0	36	
8	0	0	0	0	37	
9	0	0	0	0	36	
10	0	0	0	0	36	
11	0	0	0	0	36	
12	0	0	0	0	37	
13	0	0	0	0	36	
14	0	0	0	0	37	
15	0	0	0	0	36	
0	0	0	0	0	36	
1	0	0	0	0	36	
2	0	0	0	0	37	
3	0	0	0	0	37	
4	0	0	0	0	36	
5	0	0	0	0	36	
6	0	0	0	0	37	
7	0	0	0	0	36	
8	0	0	0	0	37	
9	0	0	0	0	36	
10	0	0	0	0	37	
11	0	0	0	0	36	
12	0	0	0	0	37	
13	0	0	0	0	36	
14	0	0	0	0	37	
15	0	0	0	0	36	
0	0	0	0	0	37	
1	0	0	0	0	37	
2	0	0	0	0	37	
3	0	0	0	0	37	
4	0	0	0	0	37	
5	0	0	0	0	36	
6	0	0	0	0	37	
7	0	0	0	0	36	
8	0	0	0	0	37	
9	0	0	0	0	36	
10	0	0	0	0	37	
11	0	0	0	0	37	
12	0	0	0	0	37	
13	0	0	0	0	36	
14	0	0	0	0	37	
15	0	0	0	0	36	
0	0	0	0	0	37	
1	0	0	0	0	36	
2	0	0	0	0	37	
3	0	0	0	0	37	
4	0	0	0	0	37	
5	0	0	0	0	37	
6	0	0	0	0	37	
7	0	0	0	0	37	
8	0	0	0	0	37	
9	0	0	0	0	37	
10	0	0	0	0	38	
11	0	0	0	0	37	
12	0	0	0	0	38	
13	0	0	0	0	37	
14	0	0	0	0	38	
15	0	0	0	0	37	
0	0	0	0	0	38	
1	0	0	0	0	38	
2	0	0	0	0	38	
3	0	0	0	0	37	
4	0	0	0	0	38	
5	0	0	0	0	38	
6	0	0	0	0	38	
7	0	0	0	0	38	
8	0	0	0	0	38	
9	0	0	0	0	38	
10	0	0	0	0	38	
11	0	0	0	0	38	
12	0	0	0	0	38	
13	0	0	0	0	38	
14	0	0	0	0	38	
15	0	0	0	0	38	
0	0	0	0	0	38	
1	0	0	0	0	38	
2	0	0	0	0	38	
3	0	0	0	0	38	
4	0	0	0	0	38	
5	0	0	0	0	38	
6	0	0	0	0	38	
7	0	0	0	0	38	
8	0	0	0	0	38	
9	0	0	0	0	38	
10	0	0	0	0	38	
11	0	0	0	0	38	
12	0	0	0	0	38	
13	0	0	0	0	38	
14	0	0	0	0	38	
15	0	0	0	0	37	
0	0	0	0	0	38	
1	0	0	0	0	37	
2	0	0	0	0	38	
3	0	0	0	0	38	
4	0	0	0	0	38	
5	0	0	0	0	37	
6	0	0	0	0	38	
7	0	0	0	0	37	
8	0	0	0	0	38	
9	0	0	0	0	37	
10	0	0	0	0	38	
11	0	0	0	0	37	
12	0	0	0	0	38	
13	0	0	0	0	37	
14	0	0	0	0	38	
15	0	0	0	0	37	
0	0	0	0	0	38	
1	0	0	0	0	37	
2	0	0	0	0	37	
3	0	0	0	0	37	
4	0	0	0	0	37	
5	0	0	0	0	37	
6	0	0	0	0	37	
7	0	0	0	0	37	
8	0	0	0	0	37	
9	0	0	0	0	37	
10	0	0	0	0	37	
11	0	0	0	0	37	
12	0	0	0	0	37	
13	0	0	0	0	36	
14	0	0	0	0	37	
15	0	0	0	0	36	
0	0	0	0	0	37	
1	0	0	0	0	36	
2	0	0	0	0	36	
3	0	0	0	0	36	
4	0	0	0	0	37	
5	0	0	0	0	36	
6	0	0	0	0	37	
7	0	0	0	0	36	
8	0	0	0	0	36	
9	0	0	0	0	36	
10	0	0	0	0	36	
11	0	0	0	0	36	
12	0	0	0	0	36	
13	0	0	0	0	36	
14	0	0	0	0	36	
15	0	0	0	0	36	
0	0	0	0	0	37	
1	0	0	0	0	36	
2	0	0	0	0	36	
3	0	0	0	0	36	
4	0	0	0	0	36	
5	0	0	0	0	36	
6	0	0	0	0	36	
7	0	0	0	0	36	
8	0	0	0	0	36	
9	0	0	0	0	36	
10	0	0	0	0	36	
11	0	0	0	0	36	
12	0	0	0	0	37	
13	0	0	0	0	36	
14	0	0	0	0	36	
15	0	0	0	0	36	
0	0	0	0	0	36	
1	0	0	0	0	36	
2	0	0	0	0	36	
3	0	0	0	0	36	
4	0	0	0	0	36	
5	0	0	0	0	36	
6	0	0	0	0	36	
7	0	0	0	0	36	
8	0	0	0	0	37	
9	0	0	0	0	36	
10	0	0	0	0	36	
11	0	0	0	0	36	
12	0	0	0	0	36	
13	0	0	0	0	36	
14	0	0	0	0	36	
15	0	0	0	0	36	
0	0	0	0	0	36	
1	0	0	0	0	36	
2	0	0	0	0	36	
3	0	0	0	0	36	
4	0	0	0	0	36	
5	0	0	0	0	36	
6	0	0	0	0	36	
7	0	0	0	0	36	
8	0	0	0	0	36	
9	0	0	0	0	36	
10	0	0	0	0	36	
11	0	0	0	0	36	
12	0	0	0	0	37	
13	0	0	0	0	36	
14	0	0	0	0	37	
15	0	0	0	0	36	
0	0	0	0	0	37	
1	0	0	0	0	37	
2	0	0	0	0	37	
3	0	0	0	0	37	
4	0	0	0	0	37	
5	0	0	0	0	37	
6	0	0	0	0	37	
7	0	0	0	0	37	
8	0	0	0	0	37	
9	0	0	0	0	37	
10	0	0	0	0	37	
11	0	0	0	0	37	
12	0	0	0	0	37	
13	0	0	0	0	37	
14	0	0	0	0	37	
15	0	0	0	0	37	
0	0	0	0	0	37	
1	0	0	0	0	37	
2	0	0	0	0	37	
3	0	0	0	0	37	
4	0	0	0	0	37	
5	0	0	0	0	37	
6	0	0	0	0	37	
7	0	0	0	0	37	
8	0	0	0	0	37	
9	0	0	0	0	37	
10	0	0	0	0	37	
11	0	0	0	0	37	
12	0	0	0	0	37	
13	0	0	0	0	37	
14	0	0	0	0	37	
15	0	0	0	0	37	
0	0	0	0	0	37	
1	0	0	0	0	37	
2	0	0	0	0	37	
3	0	0	0	0	37	
4	0	0	0	0	37	
5	0	0	0	0	36	
6	0	0	0	0	37	
7	0	0	0	0	37	
8	0	0	0	0	37	
9	0	0	0	0	36	
10	0	0	0	0	37	
11	0	0	0	0	36	
12	0	0	0	0	37	
13	0	0	0	0	36	
14	0	0	0	0	37	
15	0	0	0	0	37	
0	0	0	0	0	37	
1	0	0	0	0	37	
2	0	0	0	0	37	
3	0	0	0	0	36	
4	0	0	0	0	37	
5	0	0	0	0	36	
6	0	0	0	0	37	
7	0	0	0	0	36	
8	0	0	0	0	37	
9	0	0	0	0	36	
10	0	0	0	0	37	
11	0	0	0	0	36	
12	0	0	0	0	37	
13	0	0	0	0	36	
14	0	0	0	0	37	
15	0	0	0	0	36	
0	0	0	0	0	36	
1	0	0	0	0	36	
2	0	0	0	0	36	
3	0	0	0	0	36	
4	0	0	0	0	36	
5	0	0	0	0	36	
6	0	0	0	0	36	
7	0	0	0	0	36	
8	0	0	0	0	36	
9	0	0	0	0	36	
10	0	0	0	0	36	
11	0	0	0	0	36	
12	0	0	0	0	36	
13	0	0	0	0	36	
14	0	0	0	0	36	
15	0	0	0	0	35	
0	0	0	0	0	36	
1	0	0	0	0	35	
2	0	0	0	0	36	
3	0	0	0	0	35	
4	0	0	0	0	35	
5	0	0	0	0	35	
6	0	0	0	0	36	
7	0	0	0	0	35	
8	0	0	0	0	35	
9	0	0	0	0	35	
10	0	0	0	0	35	
11	0	0	0	0	35	
12	0	0	0	0	35	
13	0	0	0	0	35	
14	0	0	0	0	35	
15	0	0	0	0	35	
0	0	0	0	0	35	
1	0	0	0	0	35	
2	0	0	0	0	35	
3	0	0	0	0	35	
4	0	0	0	0	35	
5	0	0	0	0	35	
6	0	0	0	0	35	
7	0	0	0	0	35	
8	0	0	0	0	35	
9	0	0	0	0	35	
10	0	0	0	0	35	
11	0	0	0	0	35	
12	0	0	0	0	35	
13	0	0	0	0	35	
14	0	0	0	0	35	
15	0	0	0	0	35	
0	0	0	0	0	35	
1	0	0	0	0	35	
2	0	0	0	0	36	
3	0	0	0	0	35	
4	0	0	0	0	35	
5	0	0	0	0	35	
6	0	0	0	0	35	
7	0	0	0	0	35	
8	0	0	0	0	35	
9	0	0	0	0	35	
10	0	0	0	0	35	
11	0	0	0	0	35	
12	0	0	0	0	35	
13	0	0	0	0	35	
14	0	0	0	0	35	
15	0	0	0	0	35	
0	0	0	0	0	35	
1	0	0	0	0	35	
2	0	0	0	0	36	
3	0	0	0	0	35	
4	0	0	0	0	35	
5	0	0	0	0	35	
6	0	0	0	0	35	
7	0	0	0	0	35	
8	0	0	0	0	35	
9	0	0	0	0	35	
10	0	0	0	0	36	
11	0	0	0	0	35	
12	0	0	0	0	36	
13	0	0	0	0	35	
14	0	0	0	0	36	
15	0	0	0	0	36	
0	0	0	0	0	36	
1	0	0	0	0	36	
2	0	0	0	0	36	
3	0	0	0	0	35	
4	0	0	0	0	36	
5	0	0	0	0	36	
6	0	0	0	0	36	
7	0	0	0	0	36	
8	0	0	0	0	36	
9	0	0	0	0	36	
10	0	0	0	0	36	
11	0	0	0	0	36	
12	0	0	0	0	36	
13	0	0	0	0	36	
14	0	0	0	0	36	
15	0	0	0	0	36	
0	0	0	0	0	36	
1	0	0	0	0	36	
2	0	0	0	0	36	
3	0	0	0	0	36	
4	0	0	0	0	36	
5	0	0	0	0	36	
6	0	0	0	0	36	
7	0	0	0	0	36	
8	0	0	0	0	36	
9	0	0	0	0	36	
10	0	0	0	0	36	
11	0	0	0	0	36	
12	0	0	0	0	36	
13	0	0	0	0	36	
14	0	0	0	0	36	
15	0	0	0	0	36	
0	0	0	0	0	36	
1	0	0	0	0	36	
2	0	0	0	0	36	
3	0	0	0	0	36	
4	0	0	0	0	36	
5	0	0	0	0	35	
6	0	0	0	0	35	
7	0	0	0	0	36	
8	0	0	0	0	36	
9	0	0	0	0	36	
10	0	0	0	0	36	
11	0	0	0	0	35	
12	0	0	0	0	36	
13	0	0	0	0	35	
14	0	0	0	0	36	
15	0	0	0	0	35	
0	0	0	0	0	36	
1	0	0	0	0	35	
2	0	0	0	0	36	
3	0	0	0	0	35	
4	0	0	0	0	36	
5	0	0	0	0	35	
6	0	0	0	0	35	
7	0	0	0	0	35	
8	0	0	0	0	36	
9	0	0	0	0	35	
10	0	0	0	0	35	
11	0	0	0	0	35	
12	0	0	0	0	35	
13	0	0	0	0	35	
14	0	0	0	0	35	
15	0	0	0	0	35	
0	0	0	0	0	35	
1	0	0	0	0	35	
2	0	0	0	0	35	
3	0	0	0	0	35	
4	0	0	0	0	35	
5	0	0	0	0	35	
6	0	0	0	0	35	
7	0	0	0	0	35	
8	0	0	0	0	35	
9	0	0	0	0	35	
10	0	0	0	0	35	
11	0	0	0	0	34	
12	0	0	0	0	35	
13	0	0	0	0	35	
14	0	0	0	0	35	
15	0	0	0	0	34	
0	0	0	0	0	35	
1	0	0	0	0	34	
2	0	0	0	0	35	
3	0	0	0	0	34	
4	0	0	0	0	35	
5	0	0	0	0	34	
6	0	0	0	0	34	
7	0	0	0	0	34	
8	0	0	0	0	34	
9	0	0	0	0	34	
10	0	0	0	0	35	
11	0	0	0	0	34	
12	0	0	0	0	35	
13	0	0	0	0	34	
14	0	0	0	0	35	
15	0	0	0	0	34	
0	0	0	0	0	34	
1	0	0	0	0	34	
2	0	0	0	0	34	
3	0	0	0	0	34	
4	0	0	0	0	34	
5	0	0	0	0	34	
6	0	0	0	0	35	
7	0	0	0	0	34	
8	0	0	0	0	35	
9	0	0	0	0	34	
10	0	0	0	0	35	
11	0	0	0	0	34	
12	0	0	0	0	34	
13	0	0	0	0	34	
14	0	0	0	0	34	
15	0	0	0	0	34	
0	0	0	0	0	34	
1	0	0	0	0	34	
2	0	0	0	0	35	
3	0	0	0	0	34	
4	0	0	0	0	34	
5	0	0	0	0	34	
6	0	0	0	0	35	
7	0	0	0	0	34	
8	0	0	0	0	35	
9	0	0	0	0	34	
10	0	0	0	0	34	
11	0	0	0	0	34	
12	0	0	0	0	34	
13	0	0	0	0	34	
14	0	0	0	0	35	
15	0	0	0	0	34	
0	0	0	0	0	35	
1	0	0	0	0	35	
2	0	0	0	0	35	
3	0	0	0	0	34	
4	0	0	0	0	35	
5	0	0	0	0	34	
6	0	0	0	0	35	
7	0	0	0	0	34	
8	0	0	0	0	35	
9	0	0	0	0	35	
10	0	0	0	0	35	
11	0	0	0	0	35	
12	0	0	0	0	35	
13	0	0	0	0	35	
14	0	0	0	0	35	
15	0	0	0	0	35	
0	0	0	0	0	35	
1	0	0	0	0	35	
2	0	0	0	0	35	
3	0	0	0	0	35	
4	0	0	0	0	35	
5	0	0	0	0	35	
6	0	0	0	0	35	
7	0	0	0	0	35	
8	0	0	0	0	35	
9	0	0	0	0	35	
10	0	0	0	0	35	
11	0	0	0	0	35	
12	0	0	0	0	35	
13	0	0	0	0	35	
14	0	0	0	0	35	
15	0	0	0	0	35	
0	0	0	0	0	35	
1	0	0	0	0	35	
2	0	0	0	0	35	
3	0	0	0	0	35	
4	0	0	0	0	35	
5	0	0	0	0	35	
6	0	0	0	0	35	
7	0	0	0	0	35	
8	0	0	0	0	35	
9	0	0	0	0	34	
10	0	0	0	0	35	
11	0	0	0	0	35	
12	0	0	0	0	35	
13	0	0	0	0	34	
14	0	0	0	0	35	
15	0	0	0	0	34	
0	0	0	0	0	35	
1	0	0	0	0	34	
2	0	0	0	0	35	
3	0	0	0	0	34	
4	0	0	0	0	34	
5	0	0	0	0	34	
6	0	0	0	0	35	
7	0	0	0	0	35	
8	0	0	0	0	35	
9	0	0	0	0	34	
10	0	0	0	0	35	
11	0	0	0	0	34	
12	0	0	0	0	35	
13	0	0	0	0	34	
14	0	0	0	0	34	
15	0	0	0	0	34	
0	0	0	0	0	34	
1	0	0	0	0	34	
2	0	0	0	0	34	
3	0	0	0	0	34	
4	0	0	0	0	34	
5	0	0	0	0	33	
6	0	0	0	0	34	
7	0	0	0	0	34	
8	0	0	0	0	34	
9	0	0	0	0	33	
10	0	0	0	0	34	
11	0	0	0	0	33	
12	0	0	0	0	33	
13	0	0	0	0	33	
14	0	0	0	0	33	
15	0	0	0	0	33	
0	0	0	0	0	33	
1	0	0	0	0	33	
2	0	0	0	0	33	
3	0	0	0	0	33	
4	0	0	0	0	33	
5	0	0	0	0	33	
6	0	0	0	0	33	
7	0	0	0	0	33	
8	0	0	0	0	33	
9	0	0	0	0	33	
10	0	0	0	0	33	
11	0	0	0	0	33	
12	0	0	0	0	33	
13	0	0	0	0	33	
14	0	0	0	0	33	
15	0	0	0	0	33	
0	0	0	0	0	33	
1	0	0	0	0	33	
2	0	0	0	0	33	
3	0	0	0	0	33	
4	0	0	0	0	33	
5	0	0	0	0	33	
6	0	0	0	0	33	
7	0	0	0	0	33	
8	0	0	0	0	33	
9	0	0	0	0	33	
10	0	0	0	0	33	
11	0	0	0	0	33	
12	0	0	0	0	33	
13	0	0	0	0	33	
14	0	0	0	0	33	
15	0	0	0	0	33	
0	0	0	0	0	33	
1	0	0	0	0	33	
2	0	0	0	0	33	
3	0	0	0	0	33	
4	0	0	0	0	33	
5	0	0	0	0	33	
6	0	0	0	0	33	
7	0	0	0	0	33	
8	0	0	0	0	33	
9	0	0	0	0	33	
10	0	0	0	0	33	
11	0	0	0	0	33	
12	0	0	0	0	33	
13	0	0	0	0	33	
14	0	0	0	0	33	
15	0	0	0	0	33	
0	0	0	0	0	33	
1	0	0	0	0	33	
2	0	0	0	0	33	
3	0	0	0	0	33	
4	0	0	0	0	33	
5	0	0	0	0	33	
6	0	0	0	0	34	
7	0	0	0	0	33	
8	0	0	0	0	34	
9	0	0	0	0	33	
10	0	0	0	0	34	
11	0	0	0	0	33	
12	0	0	0	0	34	
13	0	0	0	0	33	
14	0	0	0	0	34	
15	0	0	0	0	33	
0	0	0	0	0	34	
1	0	0	0	0	34	
2	0	0	0	0	33	
3	0	0	0	0	33	
4	0	0	0	0	34	
5	0	0	0	0	33	
6	0	0	0	0	34	
7	0	0	0	0	33	
8	0	0	0	0	34	
9	0	0	0	0	33	
10	0	0	0	0	34	
11	0	0	0	0	34	
12	0	0	0	0	34	
13	0	0	0	0	33	
14	0	0	0	0	34	
15	0	0	0	0	33	
0	0	0	0	0	34	
1	0	0	0	0	33	
2	0	0	0	0	34	
3	0	0	0	0	33	
4	0	0	0	0	34	
5	0	0	0	0	33	
6	0	0	0	0	34	
7	0	0	0	0	33	
8	0	0	0	0	34	
9	0	0	0	0	33	
10	0	0	0	0	33	
11	0	0	0	0	33	
12	0	0	0	0	34	
13	0	0	0	0	33	
14	0	0	0	0	33	
15	0	0	0	0	33	
0	0	0	0	0	34	
1	0	0	0	0	33	
2	0	0	0	0	33	
3	0	0	0	0	33	
4	0	0	0	0	33	
5	0	0	0	0	33	
6	0	0	0	0	33	
7	0	0	0	0	33	
8	0	0	0	0	33	
9	0	0	0	0	33	
10	0	0	0	0	33	
11	0	0	0	0	33	
12	0	0	0	0	33	
13	0	0	0	0	33	
14	0	0	0	0	33	
15	0	0	0	0	33	
0	0	0	0	0	33	
1	0	0	0	0	33	
2	0	0	0	0	33	
3	0	0	0	0	33	
4	0	0	0	0	33	
5	0	0	0	0	33	
6	0	0	0	0	33	
7	0	0	0	0	33	
8	0	0	0	0	33	
9	0	0	0	0	33	
10	0	0	0	0	33	
11	0	0	0	0	33	
12	0	0	0	0	33	
13	0	0	0	0	33	
14	0	0	0	0	33	
15	0	0	0	0	32	
0	0	0	0	0	33	
1	0	0	0	0	32	
2	0	0	0	0	33	
3	0	0	0	0	32	
4	0	0	0	0	32	
5	0	0	0	0	32	
6	0	0	0	0	32	
7	0	0	0	0	32	
8	0	0	0	0	32	
9	0	0	0	0	32	
10	0	0	0	0	32	
11	0	0	0	0	32	
12	0	0	0	0	32	
13	0	0	0	0	32	
14	0	0	0	0	32	
15	0	0	0	0	32	
0	0	0	0	0	32	
1	0	0	0	0	32	
2	0	0	0	0	32	
3	0	0	0	0	32	
4	0	0	0	0	32	
5	0	0	0	0	32	
6	0	0	0	0	32	
7	0	0	0	0	32	
8	0	0	0	0	32	
9	0	0	0	0	31	
10	0	0	0	0	32	
11	0	0	0	0	32	
12	0	0	0	0	32	
13	0	0	0	0	31	
14	0	0	0	0	32	
15	0	0	0	0	31	
0	0	0	0	0	32	
1	0	0	0	0	31	
2	0	0	0	0	31	
3	0	0	0	0	32	
4	0	0	0	0	32	
5	0	0	0	0	31	
6	0	0	0	0	32	
7	0	0	0	0	31	
8	0	0	0	0	32	
9	0	0	0	0	31	
10	0	0	0	0	32	
11	0	0	0	0	31	
12	0	0	0	0	32	
13	0	0	0	0	31	
14	0	0	0	0	32	
15	0	0	0	0	31	
0	0	0	0	0	32	
1	0	0	0	0	31	
2	0	0	0	0	32	
3	0	0	0	0	31	
4	0	0	0	0	31	
5	0	0	0	0	31	
6	0	0	0	0	31	
7	0	0	0	0	31	
8	0	0	0	0	32	
9	0	0	0	0	31	
10	0	0	0	0	31	
11	0	0	0	0	31	
12	0	0	0	0	32	
13	0	0	0	0	31	
14	0	0	0	0	32	
15	0	0	0	0	31	
0	0	0	0	0	32	
1	0	0	0	0	31	
2	0	0	0	0	32	
3	0	0	0	0	31	
4	0	0	0	0	32	
5	0	0	0	0	31	
6	0	0	0	0	31	
7	0	0	0	0	31	
8	0	0	0	0	31	
9	0	0	0	0	31	
10	0	0	0	0	31	
11	0	0	0	0	31	
12	0	0	0	0	31	
13	0	0	0	0	31	
14	0	0	0	0	32	
15	0	0	0	0	31	
0	0	0	0	0	31	
1	0	0	0	0	31	
2	0	0	0	0	31	
3	0	0	0	0	31	
4	0	0	0	0	31	
5	0	0	0	0	31	
6	0	0	0	0	32	
7	0	0	0	0	31	
8	0	0	0	0	32	
9	0	0	0	0	31	
10	0	0	0	0	32	
11	0	0	0	0	31	
12	0	0	0	0	32	
13	0	0	0	0	31	
14	0	0	0	0	32	
15	0	0	0	0	32	
0	0	0	0	0	32	
1	0	0	0	0	31	
2	0	0	0	0	32	
3	0	0	0	0	32	
4	0	0	0	0	32	
5	0	0	0	0	32	
6	0	0	0	0	32	
7	0	0	0	0	32	
8	0	0	0	0	32	
9	0	0	0	0	32	
10	0	0	0	0	32	
11	0	0	0	0	32	
12	0	0	0	0	32	
13	0	0	0	0	32	
14	0	0	0	0	32	
15	0	0	0	0	32	
0	0	0	0	0	32	
1	0	0	0	0	32	
2	0	0	0	0	32	
3	0	0	0	0	32	
4	0	0	0	0	32	
5	0	0	0	0	32	
6	0	0	0	0	32	
7	0	0	0	0	32	
8	0	0	0	0	32	
9	0	0	0	0	32	
10	0	0	0	0	32	
11	0	0	0	0	32	
12	0	0	0	0	32	
13	0	0	0	0	32	
14	0	0	0	0	32	
15	0	0	0	0	32	
0	0	0	0	0	32	
1	0	0	0	0	32	
2	0	0	0	0	32	
3	0	0	0	0	32	
4	0	0	0	0	32	
5	0	0	0	0	32	
6	0	0	0	0	32	
7	0	0	0	0	32	
8	0	0	0	0	32	
9	0	0	0	0	32	
10	0	0	0	0	32	
11	0	0	0	0	32	
12	0	0	0	0	32	
13	0	0	0	0	32	
14	0	0	0	0	32	
15	0	0	0	0	32	
0	0	0	0	0	32	
1	0	0	0	0	32	
2	0	0	0	0	32	
3	0	0	0	0	32	
4	0	0	0	0	32	
5	0	0	0	0	32	
6	0	0	0	0	32	
7	0	0	0	0	32	
8	0	0	0	0	32	
9	0	0	0	0	32	
10	0	0	0	0	32	
11	0	0	0	0	32	
12	0	0	0	0	32	
13	0	0	0	0	31	
14	0	0	0	0	32	
15	0	0	0	0	31	
0	0	0	0	0	32	
1	0	0	0	0	31	
2	0	0	0	0	32	
3	0	0	0	0	31	
4	0	0	0	0	32	
5	0	0	0	0	31	
6	0	0	0	0	32	
7	0	0	0	0	31	
8	0	0	0	0	32	
9	0	0	0	0	31	
10	0	0	0	0	32	
11	0	0	0	0	32	
12	0	0	0	0	32	
13	0	0	0	0	31	
14	0	0	0	0	31	
15	0	0	0	0	31	
0	0	0	0	0	31	
1	0	0	0	0	31	
2	0	0	0	0	32	
3	0	0	0	0	31	
4	0	0	0	0	31	
5	0	0	0	0	31	
6	0	0	0	0	31	
7	0	0	0	0	31	
8	0	0	0	0	31	
9	0	0	0	0	31	
10	0	0	0	0	31	
11	0	0	0	0	31	
12	0	0	0	0	31	
13	0	0	0	0	31	
14	0	0	0	0	31	
15	0	0	0	0	31	
0	0	0	0	0	31	
1	0	0	0	0	31	
2	0	0	0	0	31	
3	0	0	0	0	31	
4	0	0	0	0	31	
5	0	0	0	0	31	
6	0	0	0	0	31	
7	0	0	0	0	31	
8	0	0	0	0	31	
9	0	0	0	0	31	
10	0	0	0	0	31	
11	0	0	0	0	31	
12	0	0	0	0	31	
13	0	0	0	0	30	
14	0	0	0	0	31	
15	0	0	0	0	30	
0	0	0	0	0	31	
1	0	0	0	0	30	
2	0	0	0	0	31	
3	0	0	0	0	30	
4	0	0	0	0	31	
5	0	0	0	0	30	
6	0	0	0	0	31	
7	0	0	0	0	30	
8	0	0	0	0	31	
9	0	0	0	0	30	
10	0	0	0	0	31	
11	0	0	0	0	30	
12	0	0	0	0	30	
13	0	0	0	0	30	
14	0	0	0	0	31	
15	0	0	0	0	30	
0	0	0	0	0	30	
1	0	0	0	0	30	
2	0	0	0	0	31	
3	0	0	0	0	30	
4	0	0	0	0	31	
5	0	0	0	0	30	
6	0	0	0	0	31	
7	0	0	0	0	30	
8	0	0	0	0	31	
9	0	0	0	0	30	
10	0	0	0	0	31	
11	0	0	0	0	30	
12	0	0	0	0	31	
13	0	0	0	0	30	
14	0	0	0	0	31	
15	0	0	0	0	30	
0	0	0	0	0	31	
1	0	0	0	0	30	
2	0	0	0	0	31	
3	0	0	0	0	30	
4	0	0	0	0	31	
5	0	0	0	0	30	
6	0	0	0	0	30	
7	0	0	0	0	30	
8	0	0	0	0	30	
9	0	0	0	0	30	
10	0	0	0	0	30	
11	0	0	0	0	30	
12	0	0	0	0	31	
13	0	0	0	0	30	
14	0	0	0	0	31	
15	0	0	0	0	30	
0	0	0	0	0	31	
1	0	0	0	0	30	
2	0	0	0	0	31	
3	0	0	0	0	30	
4	0	0	0	0	31	
5	0	0	0	0	30	
6	0	0	0	0	30	
7	0	0	0	0	30	
8	0	0	0	0	31	
9	0	0	0	0	30	
10	0	0	0	0	31	
11	0	0	0	0	30	
12	0	0	0	0	31	
13	0	0	0	0	31	
14	0	0	0	0	31	
15	0	0	0	0	31	
0	0	0	0	0	31	
1	0	0	0	0	31	
2	0	0	0	0	31	
3	0	0	0	0	31	
4	0	0	0	0	31	
5	0	0	0	0	31	
6	0	0	0	0	31	
7	0	0	0	0	31	
8	0	0	0	0	31	
9	0	0	0	0	31	
10	0	0	0	0	31	
11	0	0	0	0	31	
12	0	0	0	0	31	
13	0	0	0	0	31	
14	0	0	0	0	31	
15	0	0	0	0	31	
0	0	0	0	0	31	
1	0	0	0	0	31	
2	0	0	0	0	31	
3	0	0	0	0	31	
4	0	0	0	0	31	
5	0	0	0	0	31	
6	0	0	0	0	31	
7	0	0	0	0	31	
8	0	0	0	0	31	
9	0	0	0	0	31	
10	0	0	0	0	31	
11	0	0	0	0	31	
12	0	0	0	0	31	
13	0	0	0	0	31	
14	0	0	0	0	31	
15	0	0	0	0	31	
0	0	0	0	0	31	
1	0	0	0	0	31	
2	0	0	0	0	31	
3	0	0	0	0	31	
4	0	0	0	0	31	
5	0	0	0	0	31	
6	0	0	0	0	31	
7	0	0	0	0	31	
8	0	0	0	0	31	
9	0	0	0	0	31	
10	0	0	0	0	31	
11	0	0	0	0	30	
12	0	0	0	0	31	
13	0	0	0	0	31	
14	0	0	0	0	31	
15	0	0	0	0	31	
0	0	0	0	0	31	
1	0	0	0	0	31	
2	0	0	0	0	31	
3	0	0	0	0	30	
4	0	0	0	0	31	
5	0	0	0	0	30	
6	0	0	0	0	31	
7	0	0	0	0	30	
8	0	0	0	0	31	
9	0	0	0	0	30	
10	0	0	0	0	31	
11	0	0	0	0	30	
12	0	0	0	0	31	
13	0	0	0	0	30	
14	0	0	0	0	31	
15	0	0	0	0	30	
0	0	0	0	0	31	
1	0	0	0	0	30	
2	0	0	0	0	31	
3	0	0	0	0	30	
4	0	0	0	0	31	
5	0	0	0	0	30	
6	0	0	0	0	30	
7	0	0	0	0	30	
8	0	0	0	0	30	
9	0	0	0	0	30	
10	0	0	0	0	30	
11	0	0	0	0	30	
12	0	0	0	0	30	
13	0	0	0	0	30	
14	0	0	0	0	30	
15	0	0	0	0	30	
0	0	0	0	0	30	
1	0	0	0	0	30	
2	0	0	0	0	30	
3	0	0	0	0	30	
4	0	0	0	0	30	
5	0	0	0	0	29	
6	0	0	0	0	30	
7	0	0	0	0	29	
8	0	0	0	0	30	
9	0	0	0	0	29	
10	0	0	0	0	30	
11	0	0	0	0	29	
12	0	0	0	0	29	
13	0	0	0	0	29	
14	0	0	0	0	29	
15	0	0	0	0	29	
0	0	0	0	0	29	
1	0	0	0	0	29	
2	0	0	0	0	29	
3	0	0	0	0	29	
4	0	0	0	0	29	
5	0	0	0	0	29	
6	0	0	0	0	29	
7	0	0	0	0	29	
8	0	0	0	0	29	
9	0	0	0	0	29	
10	0	0	0	0	29	
11	0	0	0	0	29	
12	0	0	0	0	29	
13	0	0	0	0	29	
14	0	0	0	0	29	
15	0	0	0	0	29	
0	0	0	0	0	29	
1	0	0	0	0	29	
2	0	0	0	0	29	
3	0	0	0	0	29	
4	0	0	0	0	29	
5	0	0	0	0	29	
6	0	0	0	0	29	
7	0	0	0	0	29	
8	0	0	0	0	29	
9	0	0	0	0	28	
10	0	0	0	0	29	
11	0	0	0	0	29	
12	0	0	0	0	29	
13	0	0	0	0	29	
14	0	0	0	0	29	
15	0	0	0	0	29	
0	0	0	0	0	29	
1	0	0	0	0	29	
2	0	0	0	0	29	
3	0	0	0	0	29	
4	0	0	0	0	29	
5	0	0	0	0	29	
6	0	0	0	0	29	
7	0	0	0	0	29	
8	0	0	0	0	29	
9	0	0	0	0	29	
10	0	0	0	0	29	
11	0	0	0	0	29	
12	0	0	0	0	29	
13	0	0	0	0	29	
14	0	0	0	0	29	
15	0	0	0	0	29	
0	0	0	0	0	29	
1	0	0	0	0	29	
2	0	0	0	0	29	
3	0	0	0	0	28	
4	0	0	0	0	29	
5	0	0	0	0	29	
6	0	0	0	0	29	
7	0	0	0	0	29	
8	0	0	0	0	29	
9	0	0	0	0	28	
10	0	0	0	0	29	
11	0	0	0	0	29	
12	0	0	0	0	29	
13	0	0	0	0	29	
14	0	0	0	0	29	
15	0	0	0	0	28	
0	0	0	0	0	29	
1	0	0	0	0	29	
2	0	0	0	0	29	
3	0	0	0	0	29	
4	0	0	0	0	29	
5	0	0	0	0	29	
6	0	0	0	0	29	
7	0	0	0	0	29	
8	0	0	0	0	29	
9	0	0	0	0	29	
10	0	0	0	0	29	
11	0	0	0	0	29	
12	0	0	0	0	29	
13	0	0	0	0	29	
14	0	0	0	0	29	
15	0	0	0	0	29	
0	0	0	0	0	29	
1	0	0	0	0	29	
2	0	0	0	0	29	
3	0	0	0	0	29	
4	0	0	0	0	30	
5	0	0	0	0	29	
6	0	0	0	0	30	
7	0	0	0	0	29	
8	0	0	0	0	29	
9	0	0	0	0	29	
10	0	0	0	0	30	
11	0	0	0	0	29	
12	0	0	0	0	29	
13	0	0	0	0	29	
14	0	0	0	0	30	
15	0	0	0	0	29	
0	0	0	0	0	30	
1	0	0	0	0	29	
2	0	0	0	0	30	
3	0	0	0	0	29	
4	0	0	0	0	30	
5	0	0	0	0	29	
6	0	0	0	0	30	
7	0	0	0	0	29	
8	0	0	0	0	30	
9	0	0	0	0	29	
10	0	0	0	0	30	
11	0	0	0	0	29	
12	0	0	0	0	30	
13	0	0	0	0	29	
14	0	0	0	0	30	
15	0	0	0	0	29	
0	0	0	0	0	29	
1	0	0	0	0	29	
2	0	0	0	0	29	
3	0	0	0	0	29	
4	0	0	0	0	29	
5	0	0	0	0	29	
6	0	0	0	0	29	
7	0	0	0	0	29	
8	0	0	0	0	29	
9	0	0	0	0	29	
10	0	0	0	0	29	
11	0	0	0	0	29	
12	0	0	0	0	29	
13	0	0	0	0	29	
14	0	0	0	0	29	
15	0	0	0	0	29	
0	0	0	0	0	29	
1	0	0	0	0	29	
2	0	0	0	0	29	
3	0	0	0	0	29	
4	0	0	0	0	29	
5	0	0	0	0	29	
6	0	0	0	0	29	
7	0	0	0	0	29	
8	0	0	0	0	29	
9	0	0	0	0	29	
10	0	0	0	0	29	
11	0	0	0	0	28	
12	0	0	0	0	29	
13	0	0	0	0	28	
14	0	0	0	0	29	
15	0	0	0	0	28	
0	0	0	0	0	28	
1	0	0	0	0	28	
2	0	0	0	0	28	
3	0	0	0	0	28	
4	0	0	0	0	28	
5	0	0	0	0	28	
6	0	0	0	0	28	
7	0	0	0	0	28	
8	0	0	0	0	28	
9	0	0	0	0	28	
10	0	0	0	0	28	
11	0	0	0	0	28	
12	0	0	0	0	28	
13	0	0	0	0	28	
14	0	0	0	0	28	
15	0	0	0	0	28	
0	0	0	0	0	28	
1	0	0	0	0	28	
2	0	0	0	0	28	
3	0	0	0	0	28	
4	0	0	0	0	28	
5	0	0	0	0	27	
6	0	0	0	0	28	
7	0	0	0	0	28	
8	0	0	0	0	28	
9	0	0	0	0	27	
10	0	0	0	0	28	
11	0	0	0	0	28	
12	0	0	0	0	28	
13	0	0	0	0	27	
14	0	0	0	0	28	
15	0	0	0	0	27	
0	0	0	0	0	28	
1	0	0	0	0	28	
2	0	0	0	0	28	
3	0	0	0	0	27	
4	0	0	0	0	28	
5	0	0	0	0	27	
6	0	0	0	0	28	
7	0	0	0	0	27	
8	0	0	0	0	28	
9	0	0	0	0	27	
10	0	0	0	0	28	
11	0	0	0	0	28	
12	0	0	0	0	28	
13	0	0	0	0	28	
14	0	0	0	0	28	
15	0	0	0	0	28	
0	0	0	0	0	28	
1	0	0	0	0	28	
2	0	0	0	0	28	
3	0	0	0	0	27	
4	0	0	0	0	28	
5	0	0	0	0	28	
6	0	0	0	0	28	
7	0	0	0	0	28	
8	0	0	0	0	28	
9	0	0	0	0	28	
10	0	0	0	0	28	
11	0	0	0	0	28	
12	0	0	0	0	28	
13	0	0	0	0	27	
14	0	0	0	0	28	
15	0	0	0	0	28	
0	0	0	0	0	28	
1	0	0	0	0	28	
2	0	0	0	0	28	
3	0	0	0	0	28	
4	0	0	0	0	28	
5	0	0	0	0	28	
6	0	0	0	0	28	
7	0	0	0	0	28	
8	0	0	0	0	28	
9	0	0	0	0	28	
10	0	0	0	0	28	
11	0	0	0	0	28	
12	0	0	0	0	28	
13	0	0	0	0	28	
14	0	0	0	0	28	
15	0	0	0	0	28	
0	0	0	0	0	28	
1	0	0	0	0	28	
2	0	0	0	0	29	
3	0	0	0	0	28	
4	0	0	0	0	29	
5	0	0	0	0	28	
6	0	0	0	0	28	
7	0	0	0	0	28	
8	0	0	0	0	28	
9	0	0	0	0	28	
10	0	0	0	0	28	
11	0	0	0	0	28	
12	0	0	0	0	28	
13	0	0	0	0	28	
14	0	0	0	0	29	
15	0	0	0	0	28	
0	0	0	0	0	28	
1	0	0	0	0	28	
2	0	0	0	0	28	
3	0	0	0	0	28	
4	0	0	0	0	28	
5	0	0	0	0	28	
6	0	0	0	0	28	
7	0	0	0	0	28	
8	0	0	0	0	28	
9	0	0	0	0	28	
10	0	0	0	0	28	
11	0	0	0	0	28	
12	0	0	0	0	28	
13	0	0	0	0	28	
14	0	0	0	0	28	
15	0	0	0	0	28	
0	0	0	0	0	28	
1	0	0	0	0	28	
2	0	0	0	0	28	
3	0	0	0	0	28	
4	0	0	0	0	28	
5	0	0	0	0	28	
6	0	0	0	0	28	
7	0	0	0	0	28	
8	0	0	0	0	28	
9	0	0	0	0	28	
10	0	0	0	0	28	
11	0	0	0	0	28	
12	0	0	0	0	28	
13	0	0	0	0	28	
14	0	0	0	0	28	
15	0	0	0	0	28	
0	0	0	0	0	28	
1	0	0	0	0	28	
2	0	0	0	0	28	
3	0	0	0	0	28	
4	0	0	0	0	28	
5	0	0	0	0	28	
6	0	0	0	0	28	
7	0	0	0	0	27	
8	0	0	0	0	28	
9	0	0	0	0	27	
10	0	0	0	0	28	
11	0	0	0	0	27	
12	0	0	0	0	28	
13	0	0	0	0	27	
14	0	0	0	0	27	
15	0	0	0	0	27	
0	0	0	0	0	28	
1	0	0	0	0	27	
2	0	0	0	0	28	
3	0	0	0	0	27	
4	0	0	0	0	27	
5	0	0	0	0	27	
6	0	0	0	0	27	
7	0	0	0	0	27	
8	0	0	0	0	27	
9	0	0	0	0	27	
10	0	0	0	0	27	
11	0	0	0	0	27	
12	0	0	0	0	27	
13	0	0	0	0	27	
14	0	0	0	0	27	
15	0	0	0	0	27	
0	0	0	0	0	27	
1	0	0	0	0	26	
2	0	0	0	0	27	
3	0	0	0	0	26	
4	0	0	0	0	27	
5	0	0	0	0	27	
6	0	0	0	0	27	
7	0	0	0	0	27	
8	0	0	0	0	27	
9	0	0	0	0	26	
10	0	0	0	0	27	
11	0	0	0	0	26	
12	0	0	0	0	27	
13	0	0	0	0	27	
14	0	0	0	0	27	
15	0	0	0	0	26	
0	0	0	0	0	27	
1	0	0	0	0	26	
2	0	0	0	0	27	
3	0	0	0	0	26	
4	0	0	0	0	27	
5	0	0	0	0	26	
6	0	0	0	0	27	
7	0	0	0	0	26	
8	0	0	0	0	27	
9	0	0	0	0	26	
10	0	0	0	0	27	
11	0	0	0	0	26	
12	0	0	0	0	27	
13	0	0	0	0	26	
14	0	0	0	0	27	
15	0	0	0	0	26	
0	0	0	0	0	27	
1	0	0	0	0	26	
2	0	0	0	0	27	
3	0	0	0	0	27	
4	0	0	0	0	27	
5	0	0	0	0	26	
6	0	0	0	0	27	
7	0	0	0	0	26	
8	0	0	0	0	27	
9	0	0	0	0	26	
10	0	0	0	0	27	
11	0	0	0	0	26	
12	0	0	0	0	27	
13	0	0	0	0	26	
14	0	0	0	0	27	
15	0	0	0	0	26	
0	0	0	0	0	26	
1	0	0	0	0	26	
2	0	0	0	0	27	
3	0	0	0	0	26	
4	0	0	0	0	27	
5	0	0	0	0	26	
6	0	0	0	0	27	
7	0	0	0	0	26	
8	0	0	0	0	27	
9	0	0	0	0	26	
10	0	0	0	0	27	
11	0	0	0	0	27	
12	0	0	0	0	27	
13	0	0	0	0	26	
14	0	0	0	0	27	
15	0	0	0	0	26	
0	0	0	0	0	27	
1	0	0	0	0	26	
2	0	0	0	0	27	
3	0	0	0	0	26	
4	0	0	0	0	27	
5	0	0	0	0	27	
6	0	0	0	0	27	
7	0	0	0	0	27	
8	0	0	0	0	27	
9	0	0	0	0	27	
10	0	0	0	0	27	
11	0	0	0	0	27	
12	0	0	0	0	27	
13	0	0	0	0	27	
14	0	0	0	0	27	
15	0	0	0	0	27	
0	0	0	0	0	27	
1	0	0	0	0	27	
2	0	0	0	0	27	
3	0	0	0	0	27	
4	0	0	0	0	27	
5	0	0	0	0	27	
6	0	0	0	0	27	
7	0	0	0	0	27	
8	0	0	0	0	28	
9	0	0	0	0	27	
10	0	0	0	0	27	
11	0	0	0	0	27	
12	0	0	0	0	27	
13	0	0	0	0	27	
14	0	0	0	0	27	
15	0	0	0	0	27	
0	0	0	0	0	27	
1	0	0	0	0	27	
2	0	0	0	0	27	
3	0	0	0	0	27	
4	0	0	0	0	27	
5	0	0	0	0	27	
6	0	0	0	0	27	
7	0	0	0	0	27	
8	0	0	0	0	27	
9	0	0	0	0	27	
10	0	0	0	0	27	
11	0	0	0	0	27	
12	0	0	0	0	27	
13	0	0	0	0	27	
14	0	0	0	0	27	
15	0	0	0	0	27	
0	0	0	0	0	27	
1	0	0	0	0	27	
2	0	0	0	0	27	
3	0	0	0	0	27	
4	0	0	0	0	27	
5	0	0	0	0	27	
6	0	0	0	0	27	
7	0	0	0	0	27	
8	0	0	0	0	27	
9	0	0	0	0	27	
10	0	0	0	0	27	
11	0	0	0	0	27	
12	0	0	0	0	27	
13	0	0	0	0	27	
14	0	0	0	0	27	
15	0	0	0	0	27	
0	0	0	0	0	27	
1	0	0	0	0	27	
2	0	0	0	0	27	
3	0	0	0	0	27	
4	0	0	0	0	27	
5	0	0	0	0	27	
6	0	0	0	0	27	
7	0	0	0	0	27	
8	0	0	0	0	27	
9	0	0	0	0	27	
10	0	0	0	0	27	
11	0	0	0	0	27	
12	0	0	0	0	27	
13	0	0	0	0	27	
14	0	0	0	0	27	
15	0	0	0	0	27	
0	0	0	0	0	27	
1	0	0	0	0	27	
2	0	0	0	0	27	
3	0	0	0	0	26	
4	0	0	0	0	27	
5	0	0	0	0	26	
6	0	0	0	0	27	
7	0	0	0	0	26	
8	0	0	0	0	27	
9	0	0	0	0	27	
10	0	0	0	0	27	
11	0	0	0	0	26	
12	0	0	0	0	26	
13	0	0	0	0	26	
14	0	0	0	0	27	
15	0	0	0	0	26	
0	0	0	0	0	26	
1	0	0	0	0	26	
2	0	0	0	0	26	
3	0	0	0	0	26	
4	0	0	0	0	26	
5	0	0	0	0	26	
6	0	0	0	0	26	
7	0	0	0	0	26	
8	0	0	0	0	26	
9	0	0	0	0	25	
10	0	0	0	0	26	
11	0	0	0	0	25	
12	0	0	0	0	26	
13	0	0	0	0	25	
14	0	0	0	0	26	
15	0	0	0	0	25	
0	0	0	0	0	25	
1	0	0	0	0	25	
2	0	0	0	0	26	
3	0	0	0	0	25	
4	0	0	0	0	26	
5	0	0	0	0	25	
6	0	0	0	0	26	
7	0	0	0	0	25	
8	0	0	0	0	26	
9	0	0	0	0	25	
10	0	0	0	0	26	
11	0	0	0	0	25	
12	0	0	0	0	25	
13	0	0	0	0	25	
14	0	0	0	0	25	
15	0	0	0	0	25	
0	0	0	0	0	25	
1	0	0	0	0	25	
2	0	0	0	0	25	
3	0	0	0	0	25	
4	0	0	0	0	25	
5	0	0	0	0	25	
6	0	0	0	0	25	
7	0	0	0	0	25	
8	0	0	0	0	26	
9	0	0	0	0	25	
10	0	0	0	0	25	
11	0	0	0	0	25	
12	0	0	0	0	25	
13	0	0	0	0	25	
14	0	0	0	0	25	
15	0	0	0	0	25	
0	0	0	0	0	26	
1	0	0	0	0	25	
2	0	0	0	0	25	
3	0	0	0	0	25	
4	0	0	0	0	25	
5	0	0	0	0	25	
6	0	0	0	0	25	
7	0	0	0	0	25	
8	0	0	0	0	25	
9	0	0	0	0	25	
10	0	0	0	0	25	
11	0	0	0	0	25	
12	0	0	0	0	25	
13	0	0	0	0	25	
14	0	0	0	0	26	
15	0	0	0	0	25	
0	0	0	0	0	25	
1	0	0	0	0	25	
2	0	0	0	0	25	
3	0	0	0	0	25	
4	0	0	0	0	25	
5	0	0	0	0	25	
6	0	0	0	0	25	
7	0	0	0	0	25	
8	0	0	0	0	25	
9	0	0	0	0	25	
10	0	0	0	0	25	
11	0	0	0	0	25	
12	0	0	0	0	25	
13	0	0	0	0	25	
14	0	0	0	0	25	
15	0	0	0	0	25	
0	0	0	0	0	25	
1	0	0	0	0	25	
2	0	0	0	0	25	
3	0	0	0	0	25	
4	0	0	0	0	26	
5	0	0	0	0	25	
6	0	0	0	0	25	
7	0	0	0	0	25	
8	0	0	0	0	25	
9	0	0	0	0	25	
10	0	0	0	0	25	
11	0	0	0	0	25	
12	0	0	0	0	25	
13	0	0	0	0	25	
14	0	0	0	0	26	
15	0	0	0	0	25	
0	0	0	0	0	26	
1	0	0	0	0	25	
2	0	0	0	0	26	
3	0	0	0	0	25	
4	0	0	0	0	25	
5	0	0	0	0	25	
6	0	0	0	0	25	
7	0	0	0	0	25	
8	0	0	0	0	26	
9	0	0	0	0	26	
10	0	0	0	0	26	
11	0	0	0	0	25	
12	0	0	0	0	26	
13	0	0	0	0	25	
14	0	0	0	0	26	
15	0	0	0	0	26	
0	0	0	0	0	26	
1	0	0	0	0	25	
2	0	0	0	0	26	
3	0	0	0	0	26	
4	0	0	0	0	26	
5	0	0	0	0	26	
6	0	0	0	0	26	
7	0	0	0	0	26	
8	0	0	0	0	26	
9	0	0	0	0	26	
10	0	0	0	0	26	
11	0	0	0	0	26	
12	0	0	0	0	26	
13	0	0	0	0	26	
14	0	0	0	0	26	
15	0	0	0	0	26	
0	0	0	0	0	26	
1	0	0	0	0	26	
2	0	0	0	0	26	
3	0	0	0	0	26	
4	0	0	0	0	26	
5	0	0	0	0	25	
6	0	0	0	0	26	
7	0	0	0	0	26	
8	0	0	0	0	26	
9	0	0	0	0	26	
10	0	0	0	0	26	
11	0	0	0	0	26	
12	0	0	0	0	26	
13	0	0	0	0	26	
14	0	0	0	0	26	
15	0	0	0	0	26	
0	0	0	0	0	26	
1	0	0	0	0	26	
2	0	0	0	0	26	
3	0	0	0	0	26	
4	0	0	0	0	26	
5	0	0	0	0	26	
6	0	0	0	0	26	
7	0	0	0	0	26	
8	0	0	0	0	26	
9	0	0	0	0	25	
10	0	0	0	0	26	
11	0	0	0	0	26	
12	0	0	0	0	26	
13	0	0	0	0	25	
14	0	0	0	0	26	
15	0	0	0	0	25	
0	0	0	0	0	26	
1	0	0	0	0	26	
2	0	0	0	0	26	
3	0	0	0	0	25	
4	0	0	0	0	26	
5	0	0	0	0	26	
6	0	0	0	0	26	
7	0	0	0	0	25	
8	0	0	0	0	26	
9	0	0	0	0	25	
10	0	0	0	0	26	
11	0	0	0	0	25	
12	0	0	0	0	25	
13	0	0	0	0	25	
14	0	0	0	0	26	
15	0	0	0	0	25	
0	0	0	0	0	26	
1	0	0	0	0	25	
2	0	0	0	0	26	
3	0	0	0	0	25	
4	0	0	0	0	26	
5	0	0	0	0	25	
6	0	0	0	0	26	
7	0	0	0	0	25	
8	0	0	0	0	26	
9	0	0	0	0	25	
10	0	0	0	0	26	
11	0	0	0	0	25	
12	0	0	0	0	26	
13	0	0	0	0	25	
14	0	0	0	0	25	
15	0	0	0	0	25	
0	0	0	0	0	25	
1	0	0	0	0	25	
2	0	0	0	0	25	
3	0	0	0	0	25	
4	0	0	0	0	25	
5	0	0	0	0	25	
6	0	0	0	0	25	
7	0	0	0	0	25	
8	0	0	0	0	25	
9	0	0	0	0	25	
10	0	0	0	0	25	
11	0	0	0	0	25	
12	0	0	0	0	25	
13	0	0	0	0	25	
14	0	0	0	0	25	
15	0	0	0	0	25	
0	0	0	0	0	25	
1	0	0	0	0	25	
2	0	0	0	0	25	
3	0	0	0	0	25	
4	0	0	0	0	25	
5	0	0	0	0	24	
6	0	0	0	0	25	
7	0	0	0	0	24	
8	0	0	0	0	25	
9	0	0	0	0	24	
10	0	0	0	0	24	
11	0	0	0	0	24	
12	0	0	0	0	24	
13	0	0	0	0	24	
14	0	0	0	0	24	
15	0	0	0	0	24	
0	0	0	0	0	24	
1	0	0	0	0	24	
2	0	0	0	0	24	
3	0	0	0	0	24	
4	0	0	0	0	24	
5	0	0	0	0	24	
6	0	0	0	0	24	
7	0	0	0	0	24	
8	0	0	0	0	24	
9	0	0	0	0	24	
10	0	0	0	0	24	
11	0	0	0	0	24	
12	0	0	0	0	25	
13	0	0	0	0	24	
14	0	0	0	0	24	
15	0	0	0	0	24	
0	0	0	0	0	24	
1	0	0	0	0	24	
2	0	0	0	0	24	
3	0	0	0	0	24	
4	0	0	0	0	24	
5	0	0	0	0	24	
6	0	0	0	0	24	
7	0	0	0	0	24	
8	0	0	0	0	24	
9	0	0	0	0	24	
10	0	0	0	0	24	
11	0	0	0	0	24	
12	0	0	0	0	24	
13	0	0	0	0	24	
14	0	0	0	0	24	
15	0	0	0	0	24	
0	0	0	0	0	24	
1	0	0	0	0	24	
2	0	0	0	0	24	
3	0	0	0	0	24	
4	0	0	0	0	24	
5	0	0	0	0	24	
6	0	0	0	0	25	
7	0	0	0	0	24	
8	0	0	0	0	24	
9	0	0	0	0	24	
10	0	0	0	0	24	
11	0	0	0	0	24	
12	0	0	0	0	24	
13	0	0	0	0	24	
14	0	0	0	0	24	
15	0	0	0	0	24	
0	0	0	0	0	24	
1	0	0	0	0	24	
2	0	0	0	0	25	
3	0	0	0	0	24	
4	0	0	0	0	24	
5	0	0	0	0	24	
6	0	0	0	0	25	
7	0	0	0	0	24	
8	0	0	0	0	25	
9	0	0	0	0	24	
10	0	0	0	0	25	
11	0	0	0	0	25	
12	0	0	0	0	25	
13	0	0	0	0	25	
14	0	0	0	0	25	
15	0	0	0	0	25	
0	0	0	0	0	25	
1	0	0	0	0	25	
2	0	0	0	0	25	
3	0	0	0	0	25	
4	0	0	0	0	25	
5	0	0	0	0	25	
6	0	0	0	0	25	
7	0	0	0	0	25	
8	0	0	0	0	25	
9	0	0	0	0	25	
10	0	0	0	0	25	
11	0	0	0	0	25	
12	0	0	0	0	25	
13	0	0	0	0	25	
14	0	0	0	0	25	
15	0	0	0	0	25	
0	0	0	0	0	25	
1	0	0	0	0	25	
2	0	0	0	0	25	
3	0	0	0	0	25	
4	0	0	0	0	25	
5	0	0	0	0	25	
6	0	0	0	0	25	
7	0	0	0	0	25	
8	0	0	0	0	25	
9	0	0	0	0	25	
10	0	0	0	0	25	
11	0	0	0	0	25	
12	0	0	0	0	25	
13	0	0	0	0	25	
14	0	0	0	0	25	
15	0	0	0	0	25	
0	0	0	0	0	25	
1	0	0	0	0	25	
2	0	0	0	0	25	
3	0	0	0	0	25	
4	0	0	0	0	25	
5	0	0	0	0	25	
6	0	0	0	0	25	
7	0	0	0	0	25	
8	0	0	0	0	25	
9	0	0	0	0	25	
10	0	0	0	0	25	
11	0	0	0	0	24	
12	0	0	0	0	25	
13	0	0	0	0	25	
14	0	0	0	0	25	
15	0	0	0	0	25	
0	0	0	0	0	25	
1	0	0	0	0	24	
2	0	0	0	0	24	
3	0	0	0	0	24	
4	0	0	0	0	25	
5	0	0	0	0	24	
6	0	0	0	0	24	
7	0	0	0	0	24	
8	0	0	0	0	25	
9	0	0	0	0	24	
10	0	0	0	0	25	
11	0	0	0	0	24	
12	0	0	0	0	24	
13	0	0	0	0	24	
14	0	0	0	0	24	
15	0	0	0	0	24	
0	0	0	0	0	24	
1	0	0	0	0	24	
2	0	0	0	0	24	
3	0	0	0	0	24	
4	0	0	0	0	24	
5	0	0	0	0	24	
6	0	0	0	0	24	
7	0	0	0	0	24	
8	0	0	0	0	24	
9	0	0	0	0	24	
10	0	0	0	0	24	
11	0	0	0	0	24	
12	0	0	0	0	24	
13	0	0	0	0	24	
14	0	0	0	0	24	
15	0	0	0	0	24	
0	0	0	0	0	24	
1	0	0	0	0	24	
2	0	0	0	0	24	
3	0	0	0	0	24	
4	0	0	0	0	24	
5	0	0	0	0	24	
6	0	0	0	0	24	
7	0	0	0	0	24	
8	0	0	0	0	24	
9	0	0	0	0	24	
10	0	0	0	0	24	
11	0	0	0	0	24	
12	0	0	0	0	24	
13	0	0	0	0	24	
14	0	0	0	0	24	
15	0	0	0	0	24	
0	0	0	0	0	24	
1	0	0	0	0	24	
2	0	0	0	0	24	
3	0	0	0	0	24	
4	0	0	0	0	24	
5	0	0	0	0	24	
6	0	0	0	0	24	
7	0	0	0	0	24	
8	0	0	0	0	24	
9	0	0	0	0	24	
10	0	0	0	0	24	
11	0	0	0	0	24	
12	0	0	0	0	24	
13	0	0	0	0	24	
14	0	0	0	0	24	
15	0	0	0	0	24	
0	0	0	0	0	24	
1	0	0	0	0	24	
2	0	0	0	0	24	
3	0	0	0	0	24	
4	0	0	0	0	24	
5	0	0	0	0	24	
6	0	0	0	0	24	
7	0	0	0	0	24	
8	0	0	0	0	24	
9	0	0	0	0	24	
10	0	0	0	0	24	
11	0	0	0	0	24	
12	0	0	0	0	24	
13	0	0	0	0	24	
14	0	0	0	0	24	
15	0	0	0	0	24	
0	0	0	0	0	24	
1	0	0	0	0	24	
2	0	0	0	0	24	
3	0	0	0	0	24	
4	0	0	0	0	24	
5	0	0	0	0	24	
6	0	0	0	0	24	
7	0	0	0	0	24	
8	0	0	0	0	24	
9	0	0	0	0	24	
10	0	0	0	0	24	
11	0	0	0	0	24	
12	0	0	0	0	24	
13	0	0	0	0	24	
14	0	0	0	0	24	
15	0	0	0	0	24	
0	0	0	0	0	24	
1	0	0	0	0	24	
2	0	0	0	0	24	
3	0	0	0	0	24	
4	0	0	0	0	24	
5	0	0	0	0	24	
6	0	0	0	0	24	
7	0	0	0	0	24	
8	0	0	0	0	24	
9	0	0	0	0	24	
10	0	0	0	0	24	
11	0	0	0	0	24	
12	0	0	0	0	24	
13	0	0	0	0	24	
14	0	0	0	0	24	
15	0	0	0	0	24	
0	0	0	0	0	24	
1	0	0	0	0	24	
2	0	0	0	0	24	
3	0	0	0	0	24	
4	0	0	0	0	24	
5	0	0	0	0	24	
6	0	0	0	0	24	
7	0	0	0	0	24	
8	0	0	0	0	24	
9	0	0	0	0	24	
10	0	0	0	0	25	
11	0	0	0	0	24	
12	0	0	0	0	25	
13	0	0	0	0	24	
14	0	0	0	0	25	
15	0	0	0	0	24	
0	0	0	0	0	25	
1	0	0	0	0	24	
2	0	0	0	0	25	
3	0	0	0	0	24	
4	0	0	0	0	25	
5	0	0	0	0	25	
6	0	0	0	0	25	
7	0	0	0	0	24	
8	0	0	0	0	25	
9	0	0	0	0	25	
10	0	0	0	0	25	
11	0	0	0	0	24	
12	0	0	0	0	25	
13	0	0	0	0	24	
14	0	0	0	0	25	
15	0	0	0	0	24	
0	0	0	0	0	25	
1	0	0	0	0	25	
2	0	0	0	0	25	
3	0	0	0	0	24	
4	0	0	0	0	25	
5	0	0	0	0	24	
6	0	0	0	0	25	
7	0	0	0	0	24	
8	0	0	0	0	25	
9	0	0	0	0	24	
10	0	0	0	0	25	
11	0	0	0	0	24	
12	0	0	0	0	25	
13	0	0	0	0	24	
14	0	0	0	0	25	
15	0	0	0	0	24	
0	0	0	0	0	25	
1	0	0	0	0	24	
2	0	0	0	0	25	
3	0	0	0	0	24	
4	0	0	0	0	25	
5	0	0	0	0	24	
6	0	0	0	0	25	
7	0	0	0	0	24	
8	0	0	0	0	24	
9	0	0	0	0	24	
10	0	0	0	0	24	
11	0	0	0	0	24	
12	0	0	0	0	25	
13	0	0	0	0	24	
14	0	0	0	0	25	
15	0	0	0	0	24	
0	0	0	0	0	24	
1	0	0	0	0	24	
2	0	0	0	0	25	
3	0	0	0	0	24	
4	0	0	0	0	24	
5	0	0	0	0	24	
6	0	0	0	0	24	
7	0	0	0	0	24	
8	0	0	0	0	24	
9	0	0	0	0	24	
10	0	0	0	0	24	
11	0	0	0	0	24	
12	0	0	0	0	24	
13	0	0	0	0	24	
14	0	0	0	0	24	
15	0	0	0	0	24	
0	0	0	0	0	24	
1	0	0	0	0	24	
2	0	0	0	0	24	
3	0	0	0	0	24	
4	0	0	0	0	24	
5	0	0	0	0	24	
6	0	0	0	0	24	
7	0	0	0	0	24	
8	0	0	0	0	24	
9	0	0	0	0	24	
10	0	0	0	0	24	
11	0	0	0	0	24	
12	0	0	0	0	24	
13	0	0	0	0	24	
14	0	0	0	0	24	
15	0	0	0	0	24	
0	0	0	0	0	24	
1	0	0	0	0	24	
2	0	0	0	0	24	
3	0	0	0	0	23	
4	0	0	0	0	24	
5	0	0	0	0	24	
6	0	0	0	0	24	
7	0	0	0	0	23	
8	0	0	0	0	24	
9	0	0	0	0	23	
10	0	0	0	0	24	
11	0	0	0	0	23	
12	0	0	0	0	24	
13	0	0	0	0	23	
14	0	0	0	0	24	
15	0	0	0	0	23	
0	0	0	0	0	24	
1	0	0	0	0	23	
2	0	0	0	0	24	
3	0	0	0	0	23	
4	0	0	0	0	23	
5	0	0	0	0	23	
6	0	0	0	0	23	
7	0	0	0	0	23	
8	0	0	0	0	23	
9	0	0	0	0	23	
10	0	0	0	0	23	
11	0	0	0	0	23	
12	0	0	0	0	23	
13	0	0	0	0	23	
14	0	0	0	0	23	
15	0	0	0	0	23	
0	0	0	0	0	23	
1	0	0	0	0	23	
2	0	0	0	0	23	
3	0	0	0	0	23	
4	0	0	0	0	23	
5	0	0	0	0	23	
6	0	0	0	0	23	
7	0	0	0	0	23	
8	0	0	0	0	23	
9	0	0	0	0	23	
10	0	0	0	0	23	
11	0	0	0	0	23	
12	0	0	0	0	23	
13	0	0	0	0	23	
14	0	0	0	0	23	
15	0	0	0	0	23	
0	0	0	0	0	23	
1	0	0	0	0	23	
2	0	0	0	0	23	
3	0	0	0	0	23	
4	0	0	0	0	23	
5	0	0	0	0	23	
6	0	0	0	0	23	
7	0	0	0	0	23	
8	0	0	0	0	23	
9	0	0	0	0	23	
10	0	0	0	0	23	
11	0	0	0	0	23	
12	0	0	0	0	23	
13	0	0	0	0	23	
14	0	0	0	0	23	
15	0	0	0	0	23	
0	0	0	0	0	23	
1	0	0	0	0	23	
2	0	0	0	0	23	
3	0	0	0	0	23	
4	0	0	0	0	23	
5	0	0	0	0	23	
6	0	0	0	0	23	
7	0	0	0	0	23	
8	0	0	0	0	23	
9	0	0	0	0	23	
10	0	0	0	0	23	
11	0	0	0	0	23	
12	0	0	0	0	23	
13	0	0	0	0	23	
14	0	0	0	0	23	
15	0	0	0	0	23	
0	0	0	0	0	23	
1	0	0	0	0	23	
2	0	0	0	0	23	
3	0	0	0	0	23	
4	0	0	0	0	23	
5	0	0	0	0	23	
6	0	0	0	0	23	
7	0	0	0	0	23	
8	0	0	0	0	23	
9	0	0	0	0	23	
10	0	0	0	0	23	
11	0	0	0	0	23	
12	0	0	0	0	23	
13	0	0	0	0	23	
14	0	0	0	0	23	
15	0	0	0	0	23	
0	0	0	0	0	23	
1	0	0	0	0	23	
2	0	0	0	0	23	
3	0	0	0	0	23	
4	0	0	0	0	23	
5	0	0	0	0	23	
6	0	0	0	0	23	
7	0	0	0	0	23	
8	0	0	0	0	23	
9	0	0	0	0	23	
10	0	0	0	0	24	
11	0	0	0	0	23	
12	0	0	0	0	24	
13	0	0	0	0	23	
14	0	0	0	0	24	
15	0	0	0	0	23	
0	0	0	0	0	24	
1	0	0	0	0	23	
2	0	0	0	0	24	
3	0	0	0	0	23	
4	0	0	0	0	24	
5	0	0	0	0	24	
6	0	0	0	0	24	
7	0	0	0	0	23	
8	0	0	0	0	24	
9	0	0	0	0	24	
10	0	0	0	0	24	
11	0	0	0	0	24	
12	0	0	0	0	24	
13	0	0	0	0	24	
14	0	0	0	0	24	
15	0	0	0	0	24	
0	0	0	0	0	24	
1	0	0	0	0	24	
2	0	0	0	0	24	
3	0	0	0	0	23	
4	0	0	0	0	24	
5	0	0	0	0	24	
6	0	0	0	0	24	
7	0	0	0	0	24	
8	0	0	0	0	24	
9	0	0	0	0	24	
10	0	0	0	0	24	
11	0	0	0	0	24	
12	0	0	0	0	24	
13	0	0	0	0	24	
14	0	0	0	0	24	
15	0	0	0	0	23	
0	0	0	0	0	24	
1	0	0	0	0	24	
2	0	0	0	0	24	
3	0	0	0	0	24	
4	0	0	0	0	24	
5	0	0	0	0	24	
6	0	0	0	0	23	
7	0	0	0	0	24	
8	0	0	0	0	24	
9	0	0	0	0	23	
10	0	0	0	0	24	
11	0	0	0	0	23	
12	0	0	0	0	24	
13	0	0	0	0	23	
14	0	0	0	0	24	
15	0	0	0	0	23	
0	0	0	0	0	24	
1	0	0	0	0	23	
2	0	0	0	0	24	
3	0	0	0	0	23	
4	0	0	0	0	24	
5	0	0	0	0	23	
6	0	0	0	0	24	
7	0	0	0	0	23	
8	0	0	0	0	24	
9	0	0	0	0	23	
10	0	0	0	0	24	
11	0	0	0	0	23	
12	0	0	0	0	23	
13	0	0	0	0	23	
14	0	0	0	0	23	
15	0	0	0	0	23	
0	0	0	0	0	23	
1	0	0	0	0	23	
2	0	0	0	0	23	
3	0	0	0	0	23	
4	0	0	0	0	23	
5	0	0	0	0	23	
6	0	0	0	0	23	
7	0	0	0	0	23	
8	0	0	0	0	23	
9	0	0	0	0	23	
10	0	0	0	0	23	
11	0	0	0	0	23	
12	0	0	0	0	23	
13	0	0	0	0	23	
14	0	0	0	0	23	
15	0	0	0	0	23	
0	0	0	0	0	23	
1	0	0	0	0	23	
2	0	0	0	0	23	
3	0	0	0	0	22	
4	0	0	0	0	22	
5	0	0	0	0	22	
6	0	0	0	0	23	
7	0	0	0	0	22	
8	0	0	0	0	22	
9	0	0	0	0	22	
10	0	0	0	0	22	
11	0	0	0	0	22	
12	0	0	0	0	23	
13	0	0	0	0	22	
14	0	0	0	0	23	
15	0	0	0	0	22	
0	0	0	0	0	22	
1	0	0	0	0	22	
2	0	0	0	0	22	
3	0	0	0	0	22	
4	0	0	0	0	22	
5	0	0	0	0	22	
6	0	0	0	0	23	
7	0	0	0	0	22	
8	0	0	0	0	22	
9	0	0	0	0	22	
10	0	0	0	0	22	
11	0	0	0	0	22	
12	0	0	0	0	22	
13	0	0	0	0	22	
14	0	0	0	0	22	
15	0	0	0	0	22	
0	0	0	0	0	23	
1	0	0	0	0	22	
2	0	0	0	0	23	
3	0	0	0	0	22	
4	0	0	0	0	23	
5	0	0	0	0	22	
6	0	0	0	0	22	
7	0	0	0	0	22	
8	0	0	0	0	23	
9	0	0	0	0	22	
10	0	0	0	0	22	
11	0	0	0	0	22	
12	0	0	0	0	23	
13	0	0	0	0	22	
14	0	0	0	0	22	
15	0	0	0	0	22	
0	0	0	0	0	23	
1	0	0	0	0	22	
2	0	0	0	0	22	
3	0	0	0	0	22	
4	0	0	0	0	22	
5	0	0	0	0	22	
6	0	0	0	0	22	
7	0	0	0	0	22	
8	0	0	0	0	22	
9	0	0	0	0	22	
10	0	0	0	0	23	
11	0	0	0	0	22	
12	0	0	0	0	23	
13	0	0	0	0	23	
14	0	0	0	0	23	
15	0	0	0	0	22	
0	0	0	0	0	23	
1	0	0	0	0	23	
2	0	0	0	0	23	
3	0	0	0	0	23	
4	0	0	0	0	23	
5	0	0	0	0	23	
6	0	0	0	0	23	
7	0	0	0	0	23	
8	0	0	0	0	23	
9	0	0	0	0	23	
10	0	0	0	0	23	
11	0	0	0	0	23	
12	0	0	0	0	23	
13	0	0	0	0	23	
14	0	0	0	0	23	
15	0	0	0	0	23	
0	0	0	0	0	23	
1	0	0	0	0	23	
2	0	0	0	0	23	
3	0	0	0	0	23	
4	0	0	0	0	23	
5	0	0	0	0	23	
6	0	0	0	0	23	
7	0	0	0	0	23	
8	0	0	0	0	23	
9	0	0	0	0	23	
10	0	0	0	0	23	
11	0	0	0	0	23	
12	0	0	0	0	23	
13	0	0	0	0	23	
14	0	0	0	0	23	
15	0	0	0	0	23	
0	0	0	0	0	23	
1	0	0	0	0	23	
2	0	0	0	0	23	
3	0	0	0	0	23	
4	0	0	0	0	23	
5	0	0	0	0	23	
6	0	0	0	0	23	
7	0	0	0	0	23	
8	0	0	0	0	23	
9	0	0	0	0	23	
10	0	0	0	0	23	
11	0	0	0	0	23	
12	0	0	0	0	23	
13	0	0	0	0	23	
14	0	0	0	0	23	
15	0	0	0	0	23	
0	0	0	0	0	23	
1	0	0	0	0	23	
2	0	0	0	0	23	
3	0	0	0	0	23	
4	0	0	0	0	23	
5	0	0	0	0	23	
6	0	0	0	0	23	
7	0	0	0	0	23	
8	0	0	0	0	23	
9	0	0	0	0	23	
10	0	0	0	0	23	
11	0	0	0	0	23	
12	0	0	0	0	23	
13	0	0	0	0	23	
14	0	0	0	0	23	
15	0	0	0	0	23	
0	0	0	0	0	23	
1	0	0	0	0	23	
2	0	0	0	0	23	
3	0	0	0	0	23	
4	0	0	0	0	23	
5	0	0	0	0	23	
6	0	0	0	0	23	
7	0	0	0	0	23	
8	0	0	0	0	23	
9	0	0	0	0	22	
10	0	0	0	0	23	
11	0	0	0	0	22	
12	0	0	0	0	23	
13	0	0	0	0	22	
14	0	0	0	0	23	
15	0	0	0	0	22	
0	0	0	0	0	22	
1	0	0	0	0	22	
2	0	0	0	0	22	
3	0	0	0	0	22	
4	0	0	0	0	22	
5	0	0	0	0	22	
6	0	0	0	0	22	
7	0	0	0	0	22	
8	0	0	0	0	22	
9	0	0	0	0	22	
10	0	0	0	0	22	
11	0	0	0	0	22	
12	0	0	0	0	22	
13	0	0	0	0	22	
14	0	0	0	0	22	
15	0	0	0	0	22	
0	0	0	0	0	22	
1	0	0	0	0	22	
2	0	0	0	0	22	
3	0	0	0	0	22	
4	0	0	0	0	22	
5	0	0	0	0	21	
6	0	0	0	0	22	
7	0	0	0	0	22	
8	0	0	0	0	22	
9	0	0	0	0	21	
10	0	0	0	0	22	
11	0	0	0	0	22	
12	0	0	0	0	22	
13	0	0	0	0	21	
14	0	0	0	0	22	
15	0	0	0	0	22	
0	0	0	0	0	22	
1	0	0	0	0	21	
2	0	0	0	0	22	
3	0	0	0	0	21	
4	0	0	0	0	22	
5	0	0	0	0	22	
6	0	0	0	0	22	
7	0	0	0	0	21	
8	0	0	0	0	22	
9	0	0	0	0	22	
10	0	0	0	0	22	
11	0	0	0	0	21	
12	0	0	0	0	22	
13	0	0	0	0	21	
14	0	0	0	0	22	
15	0	0	0	0	22	
0	0	0	0	0	22	
1	0	0	0	0	21	
2	0	0	0	0	22	
3	0	0	0	0	22	
4	0	0	0	0	22	
5	0	0	0	0	22	
6	0	0	0	0	22	
7	0	0	0	0	21	
8	0	0	0	0	22	
9	0	0	0	0	22	
10	0	0	0	0	22	
11	0	0	0	0	22	
12	0	0	0	0	22	
13	0	0	0	0	22	
14	0	0	0	0	22	
15	0	0	0	0	22	
0	0	0	0	0	22	
1	0	0	0	0	22	
2	0	0	0	0	22	
3	0	0	0	0	21	
4	0	0	0	0	22	
5	0	0	0	0	21	
6	0	0	0	0	22	
7	0	0	0	0	22	
8	0	0	0	0	22	
9	0	0	0	0	22	
10	0	0	0	0	22	
11	0	0	0	0	22	
12	0	0	0	0	22	
13	0	0	0	0	22	
14	0	0	0	0	22	
15	0	0	0	0	22	
0	0	0	0	0	22	
1	0	0	0	0	22	
2	0	0	0	0	22	
3	0	0	0	0	22	
4	0	0	0	0	22	
5	0	0	0	0	22	
6	0	0	0	0	22	
7	0	0	0	0	22	
8	0	0	0	0	22	
9	0	0	0	0	22	
10	0	0	0	0	23	
11	0	0	0	0	22	
12	0	0	0	0	23	
13	0	0	0	0	22	
14	0	0	0	0	22	
15	0	0	0	0	22	
0	0	0	0	0	22	
1	0	0	0	0	22	
2	0	0	0	0	22	
3	0	0	0	0	22	
4	0	0	0	0	23	
5	0	0	0	0	22	
6	0	0	0	0	23	
7	0	0	0	0	22	
8	0	0	0	0	23	
9	0	0	0	0	22	
10	0	0	0	0	23	
11	0	0	0	0	23	
12	0	0	0	0	23	
13	0	0	0	0	22	
14	0	0	0	0	23	
15	0	0	0	0	22	
0	0	0	0	0	23	
1	0	0	0	0	22	
2	0	0	0	0	23	
3	0	0	0	0	22	
4	0	0	0	0	23	
5	0	0	0	0	22	
6	0	0	0	0	22	
7	0	0	0	0	22	
8	0	0	0	0	22	
9	0	0	0	0	22	
10	0	0	0	0	22	
11	0	0	0	0	22	
12	0	0	0	0	22	
13	0	0	0	0	22	
14	0	0	0	0	23	
15	0	0	0	0	22	
0	0	0	0	0	22	
1	0	0	0	0	22	
2	0	0	0	0	23	
3	0	0	0	0	22	
4	0	0	0	0	22	
5	0	0	0	0	22	
6	0	0	0	0	22	
7	0	0	0	0	22	
8	0	0	0	0	23	
9	0	0	0	0	22	
10	0	0	0	0	22	
11	0	0	0	0	22	
12	0	0	0	0	22	
13	0	0	0	0	22	
14	0	0	0	0	22	
15	0	0	0	0	22	
0	0	0	0	0	22	
1	0	0	0	0	22	
2	0	0	0	0	22	
3	0	0	0	0	22	
4	0	0	0	0	22	
5	0	0	0	0	22	
6	0	0	0	0	22	
7	0	0	0	0	21	
8	0	0	0	0	22	
9	0	0	0	0	21	
10	0	0	0	0	22	
11	0	0	0	0	22	
12	0	0	0	0	22	
13	0	0	0	0	21	
14	0	0	0	0	22	
15	0	0	0	0	21	
0	0	0	0	0	22	
1	0	0	0	0	21	
2	0	0	0	0	21	
3	0	0	0	0	21	
4	0	0	0	0	21	
5	0	0	0	0	21	
6	0	0	0	0	21	
7	0	0	0	0	21	
8	0	0	0	0	21	
9	0	0	0	0	21	
10	0	0	0	0	21	
11	0	0	0	0	21	
12	0	0	0	0	21	
13	0	0	0	0	21	
14	0	0	0	0	21	
15	0	0	0	0	21	
0	0	0	0	0	21	
1	0	0	0	0	21	
2	0	0	0	0	21	
3	0	0	0	0	21	
4	0	0	0	0	21	
5	0	0	0	0	21	
6	0	0	0	0	21	
7	0	0	0	0	21	
8	0	0	0	0	21	
9	0	0	0	0	21	
10	0	0	0	0	21	
11	0	0	0	0	21	
12	0	0	0	0	21	
13	0	0	0	0	21	
14	0	0	0	0	21	
15	0	0	0	0	21	
0	0	0	0	0	21	
1	0	0	0	0	21	
2	0	0	0	0	21	
3	0	0	0	0	21	
4	0	0	0	0	21	
5	0	0	0	0	21	
6	0	0	0	0	21	
7	0	0	0	0	21	
8	0	0	0	0	21	
9	0	0	0	0	21	
10	0	0	0	0	21	
11	0	0	0	0	21	
12	0	0	0	0	21	
13	0	0	0	0	21	
14	0	0	0	0	21	
15	0	0	0	0	21	
0	0	0	0	0	21	
1	0	0	0	0	21	
2	0	0	0	0	21	
3	0	0	0	0	21	
4	0	0	0	0	21	
5	0	0	0	0	21	
6	0	0	0	0	22	
7	0	0	0	0	21	
8	0	0	0	0	21	
9	0	0	0	0	21	
10	0	0	0	0	21	
11	0	0	0	0	21	
12	0	0	0	0	22	
13	0	0	0	0	21	
14	0	0	0	0	22	
15	0	0	0	0	22	
0	0	0	0	0	22	
1	0	0	0	0	22	
2	0	0	0	0	22	
3	0	0	0	0	22	
4	0	0	0	0	22	
5	0	0	0	0	22	
6	0	0	0	0	22	
7	0	0	0	0	22	
8	0	0	0	0	22	
9	0	0	0	0	22	
10	0	0	0	0	22	
11	0	0	0	0	22	
12	0	0	0	0	22	
13	0	0	0	0	22	
14	0	0	0	0	22	
15	0	0	0	0	22	
0	0	0	0	0	22	
1	0	0	0	0	22	
2	0	0	0	0	22	
3	0	0	0	0	22	
4	0	0	0	0	22	
5	0	0	0	0	22	
6	0	0	0	0	22	
7	0	0	0	0	22	
8	0	0	0	0	22	
9	0	0	0	0	22	
10	0	0	0	0	22	
11	0	0	0	0	22	
12	0	0	0	0	22	
13	0	0	0	0	22	
14	0	0	0	0	22	
15	0	0	0	0	22	
0	0	0	0	0	22	
1	0	0	0	0	22	
2	0	0	0	0	22	
3	0	0	0	0	22	
4	0	0	0	0	22	
5	0	0	0	0	21	
6	0	0	0	0	22	
7	0	0	0	0	22	
8	0	0	0	0	22	
9	0	0	0	0	22	
10	0	0	0	0	22	
11	0	0	0	0	21	
12	0	0	0	0	22	
13	0	0	0	0	21	
14	0	0	0	0	22	
15	0	0	0	0	21	
0	0	0	0	0	22	
1	0	0	0	0	21	
2	0	0	0	0	22	
3	0	0	0	0	21	
4	0	0	0	0	22	
5	0	0	0	0	21	
6	0	0	0	0	22	
7	0	0	0	0	22	
8	0	0	0	0	22	
9	0	0	0	0	21	
10	0	0	0	0	22	
11	0	0	0	0	21	
12	0	0	0	0	21	
13	0	0	0	0	21	
14	0	0	0	0	21	
15	0	0	0	0	21	
0	0	0	0	0	21	
1	0	0	0	0	21	
2	0	0	0	0	21	
3	0	0	0	0	21	
4	0	0	0	0	21	
5	0	0	0	0	20	
6	0	0	0	0	21	
7	0	0	0	0	21	
8	0	0	0	0	21	
9	0	0	0	0	20	
10	0	0	0	0	21	
11	0	0	0	0	20	
12	0	0	0	0	21	
13	0	0	0	0	21	
14	0	0	0	0	21	
15	0	0	0	0	20	
0	0	0	0	0	21	
1	0	0	0	0	20	
2	0	0	0	0	21	
3	0	0	0	0	20	
4	0	0	0	0	20	
5	0	0	0	0	20	
6	0	0	0	0	20	
7	0	0	0	0	20	
8	0	0	0	0	20	
9	0	0	0	0	20	
10	0	0	0	0	20	
11	0	0	0	0	20	
12	0	0	0	0	21	
13	0	0	0	0	20	
14	0	0	0	0	21	
15	0	0	0	0	20	
0	0	0	0	0	20	
1	0	0	0	0	20	
2	0	0	0	0	20	
3	0	0	0	0	20	
4	0	0	0	0	21	
5	0	0	0	0	20	
6	0	0	0	0	21	
7	0	0	0	0	20	
8	0	0	0	0	20	
9	0	0	0	0	20	
10	0	0	0	0	21	
11	0	0	0	0	20	
12	0	0	0	0	20	
13	0	0	0	0	20	
14	0	0	0	0	20	
15	0	0	0	0	20	
0	0	0	0	0	20	
1	0	0	0	0	20	
2	0	0	0	0	21	
3	0	0	0	0	20	
4	0	0	0	0	21	
5	0	0	0	0	20	
6	0	0	0	0	21	
7	0	0	0	0	20	
8	0	0	0	0	21	
9	0	0	0	0	20	
10	0	0	0	0	20	
11	0	0	0	0	20	
12	0	0	0	0	21	
13	0	0	0	0	20	
14	0	0	0	0	21	
15	0	0	0	0	20	
0	0	0	0	0	21	
1	0	0	0	0	20	
2	0	0	0	0	21	
3	0	0	0	0	20	
4	0	0	0	0	21	
5	0	0	0	0	20	
6	0	0	0	0	21	
7	0	0	0	0	21	
8	0	0	0	0	21	
9	0	0	0	0	21	
10	0	0	0	0	21	
11	0	0	0	0	21	
12	0	0	0	0	21	
13	0	0	0	0	21	
14	0	0	0	0	21	
15	0	0	0	0	21	
0	0	0	0	0	21	
1	0	0	0	0	21	
2	0	0	0	0	21	
3	0	0	0	0	21	
4	0	0	0	0	22	
5	0	0	0	0	21	
6	0	0	0	0	22	
7	0	0	0	0	21	
8	0	0	0	0	22	
9	0	0	0	0	21	
10	0	0	0	0	21	
11	0	0	0	0	21	
12	0	0	0	0	21	
13	0	0	0	0	21	
14	0	0	0	0	21	
15	0	0	0	0	21	
0	0	0	0	0	21	
1	0	0	0	0	21	
2	0	0	0	0	22	
3	0	0	0	0	21	
4	0	0	0	0	22	
5	0	0	0	0	21	
6	0	0	0	0	22	
7	0	0	0	0	21	
8	0	0	0	0	21	
9	0	0	0	0	21	
10	0	0	0	0	21	
11	0	0	0	0	21	
12	0	0	0	0	22	
13	0	0	0	0	21	
14	0	0	0	0	22	
15	0	0	0	0	21	
0	0	0	0	0	21	
1	0	0	0	0	21	
2	0	0	0	0	21	
3	0	0	0	0	21	
4	0	0	0	0	21	
5	0	0	0	0	21	
6	0	0	0	0	21	
7	0	0	0	0	21	
8	0	0	0	0	22	
9	0	0	0	0	21	
10	0	0	0	0	21	
11	0	0	0	0	21	
12	0	0	0	0	21	
13	0	0	0	0	21	
14	0	0	0	0	21	
15	0	0	0	0	21	
0	0	0	0	0	21	
1	0	0	0	0	21	
2	0	0	0	0	21	
3	0	0	0	0	21	
4	0	0	0	0	21	
5	0	0	0	0	21	
6	0	0	0	0	21	
7	0	0	0	0	21	
8	0	0	0	0	21	
9	0	0	0	0	21	
10	0	0	0	0	21	
11	0	0	0	0	21	
12	0	0	0	0	21	
13	0	0	0	0	21	
14	0	0	0	0	21	
15	0	0	0	0	21	
0	0	0	0	0	21	
1	0	0	0	0	21	
2	0	0	0	0	21	
3	0	0	0	0	21	
4	0	0	0	0	21	
5	0	0	0	0	21	
6	0	0	0	0	21	
7	0	0	0	0	21	
8	0	0	0	0	21	
9	0	0	0	0	21	
10	0	0	0	0	21	
11	0	0	0	0	21	
12	0	0	0	0	21	
13	0	0	0	0	20	
14	0	0	0	0	21	
15	0	0	0	0	20	
0	0	0	0	0	21	
1	0	0	0	0	20	
2	0	0	0	0	21	
3	0	0	0	0	20	
4	0	0	0	0	20	
5	0	0	0	0	20	
6	0	0	0	0	21	
7	0	0	0	0	20	
8	0	0	0	0	20	
9	0	0	0	0	20	
10	0	0	0	0	20	
11	0	0	0	0	20	
12	0	0	0	0	20	
13	0	0	0	0	20	
14	0	0	0	0	20	
15	0	0	0	0	20	
0	0	0	0	0	20	
1	0	0	0	0	20	
2	0	0	0	0	20	
3	0	0	0	0	20	
4	0	0	0	0	20	
5	0	0	0	0	20	
6	0	0	0	0	20	
7	0	0	0	0	19	
8	0	0	0	0	20	
9	0	0	0	0	20	
10	0	0	0	0	20	
11	0	0	0	0	20	
12	0	0	0	0	20	
13	0	0	0	0	20	
14	0	0	0	0	20	
15	0	0	0	0	20	
0	0	0	0	0	20	
1	0	0	0	0	19	
2	0	0	0	0	20	
3	0	0	0	0	19	
4	0	0	0	0	20	
5	0	0	0	0	19	
6	0	0	0	0	20	
7	0	0	0	0	20	
8	0	0	0	0	20	
9	0	0	0	0	20	
10	0	0	0	0	20	
11	0	0	0	0	19	
12	0	0	0	0	20	
13	0	0	0	0	20	
14	0	0	0	0	20	
15	0	0	0	0	20	
0	0	0	0	0	20	
1	0	0	0	0	19	
2	0	0	0	0	20	
3	0	0	0	0	20	
4	0	0	0	0	20	
5	0	0	0	0	19	
6	0	0	0	0	20	
7	0	0	0	0	19	
8	0	0	0	0	20	
9	0	0	0	0	19	
10	0	0	0	0	20	
11	0	0	0	0	19	
12	0	0	0	0	20	
13	0	0	0	0	20	
14	0	0	0	0	20	
15	0	0	0	0	19	
0	0	0	0	0	20	
1	0	0	0	0	19	
2	0	0	0	0	20	
3	0	0	0	0	19	
4	0	0	0	0	20	
5	0	0	0	0	20	
6	0	0	0	0	20	
7	0	0	0	0	20	
8	0	0	0	0	20	
9	0	0	0	0	20	
10	0	0	0	0	20	
11	0	0	0	0	20	
12	0	0	0	0	19	
13	0	0	0	0	19	
14	0	0	0	0	20	
15	0	0	0	0	19	
0	0	0	0	0	20	
1	0	0	0	0	20	
2	0	0	0	0	20	
3	0	0	0	0	19	
4	0	0	0	0	20	
5	0	0	0	0	20	
6	0	0	0	0	20	
7	0	0	0	0	20	
8	0	0	0	0	20	
9	0	0	0	0	20	
10	0	0	0	0	20	
11	0	0	0	0	20	
12	0	0	0	0	20	
13	0	0	0	0	19	
14	0	0	0	0	20	
15	0	0	0	0	20	
0	0	0	0	0	20	
1	0	0	0	0	20	
2	0	0	0	0	20	
3	0	0	0	0	20	
4	0	0	0	0	20	
5	0	0	0	0	20	
6	0	0	0	0	20	
7	0	0	0	0	20	
8	0	0	0	0	20	
9	0	0	0	0	20	
10	0	0	0	0	21	
11	0	0	0	0	20	
12	0	0	0	0	20	
13	0	0	0	0	20	
14	0	0	0	0	21	
15	0	0	0	0	20	
0	0	0	0	0	21	
1	0	0	0	0	20	
2	0	0	0	0	21	
3	0	0	0	0	21	
4	0	0	0	0	21	
5	0	0	0	0	21	
6	0	0	0	0	21	
7	0	0	0	0	21	
8	0	0	0	0	21	
9	0	0	0	0	21	
10	0	0	0	0	20	
11	0	0	0	0	21	
12	0	0	0	0	21	
13	0	0	0	0	20	
14	0	0	0	0	21	
15	0	0	0	0	20	
0	0	0	0	0	21	
1	0	0	0	0	20	
2	0	0	0	0	21	
3	0	0	0	0	21	
4	0	0	0	0	21	
5	0	0	0	0	21	
6	0	0	0	0	21	
7	0	0	0	0	21	
8	0	0	0	0	21	
9	0	0	0	0	20	
10	0	0	0	0	21	
11	0	0	0	0	21	
12	0	0	0	0	21	
13	0	0	0	0	20	
14	0	0	0	0	21	
15	0	0	0	0	20	
0	0	0	0	0	21	
1	0	0	0	0	21	
2	0	0	0	0	20	
3	0	0	0	0	20	
4	0	0	0	0	21	
5	0	0	0	0	20	
6	0	0	0	0	21	
7	0	0	0	0	21	
8	0	0	0	0	21	
9	0	0	0	0	20	
10	0	0	0	0	21	
11	0	0	0	0	20	
12	0	0	0	0	21	
13	0	0	0	0	21	
14	0	0	0	0	21	
15	0	0	0	0	20	
0	0	0	0	0	21	
1	0	0	0	0	20	
2	0	0	0	0	21	
3	0	0	0	0	20	
4	0	0	0	0	21	
5	0	0	0	0	20	
6	0	0	0	0	21	
7	0	0	0	0	20	
8	0	0	0	0	21	
9	0	0	0	0	20	
10	0	0	0	0	20	
11	0	0	0	0	20	
12	0	0	0	0	21	
13	0	0	0	0	20	
14	0	0	0	0	21	
15	0	0	0	0	20	
0	0	0	0	0	21	
1	0	0	0	0	20	
2	0	0	0	0	21	
3	0	0	0	0	20	
4	0	0	0	0	20	
5	0	0	0	0	20	
6	0	0	0	0	20	
7	0	0	0	0	20	
8	0	0	0	0	21	
9	0	0	0	0	20	
10	0	0	0	0	20	
11	0	0	0	0	20	
12	0	0	0	0	20	
13	0	0	0	0	20	
14	0	0	0	0	20	
15	0	0	0	0	20	
0	0	0	0	0	20	
1	0	0	0	0	20	
2	0	0	0	0	20	
3	0	0	0	0	20	
4	0	0	0	0	20	
5	0	0	0	0	19	
6	0	0	0	0	20	
7	0	0	0	0	19	
8	0	0	0	0	20	
9	0	0	0	0	19	
10	0	0	0	0	20	
11	0	0	0	0	19	
12	0	0	0	0	20	
13	0	0	0	0	19	
14	0	0	0	0	19	
15	0	0	0	0	19	
0	0	0	0	0	20	
1	0	0	0	0	19	
2	0	0	0	0	20	
3	0	0	0	0	19	
4	0	0	0	0	20	
5	0	0	0	0	19	
6	0	0	0	0	19	
7	0	0	0	0	19	
8	0	0	0	0	19	
9	0	0	0	0	19	
10	0	0	0	0	19	
11	0	0	0	0	19	
12	0	0	0	0	19	
13	0	0	0	0	19	
14	0	0	0	0	19	
15	0	0	0	0	19	
0	0	0	0	0	19	
1	0	0	0	0	19	
2	0	0	0	0	19	
3	0	0	0	0	19	
4	0	0	0	0	19	
5	0	0	0	0	19	
6	0	0	0	0	19	
7	0	0	0	0	19	
8	0	0	0	0	19	
9	0	0	0	0	19	
10	0	0	0	0	19	
11	0	0	0	0	19	
12	0	0	0	0	19	
13	0	0	0	0	19	
14	0	0	0	0	19	
15	0	0	0	0	19	
0	0	0	0	0	19	
1	0	0	0	0	19	
2	0	0	0	0	19	
3	0	0	0	0	19	
4	0	0	0	0	19	
5	0	0	0	0	19	
6	0	0	0	0	19	
7	0	0	0	0	19	
8	0	0	0	0	19	
9	0	0	0	0	19	
10	0	0	0	0	19	
11	0	0	0	0	19	
12	0	0	0	0	19	
13	0	0	0	0	19	
14	0	0	0	0	19	
15	0	0	0	0	19	
0	0	0	0	0	19	
1	0	0	0	0	19	
2	0	0	0	0	19	
3	0	0	0	0	19	
4	0	0	0	0	19	
5	0	0	0	0	19	
6	0	0	0	0	19	
7	0	0	0	0	19	
8	0	0	0	0	19	
9	0	0	0	0	19	
10	0	0	0	0	19	
11	0	0	0	0	19	
12	0	0	0	0	19	
13	0	0	0	0	19	
14	0	0	0	0	19	
15	0	0	0	0	19	
0	0	0	0	0	19	
1	0	0	0	0	19	
2	0	0	0	0	19	
3	0	0	0	0	19	
4	0	0	0	0	19	
5	0	0	0	0	19	
6	0	0	0	0	19	
7	0	0	0	0	19	
8	0	0	0	0	19	
9	0	0	0	0	19	
10	0	0	0	0	19	
11	0	0	0	0	19	
12	0	0	0	0	19	
13	0	0	0	0	19	
14	0	0	0	0	19	
15	0	0	0	0	19	
0	0	0	0	0	19	
1	0	0	0	0	19	
2	0	0	0	0	19	
3	0	0	0	0	19	
4	0	0	0	0	19	
5	0	0	0	0	19	
6	0	0	0	0	19	
7	0	0	0	0	19	
8	0	0	0	0	20	
9	0	0	0	0	19	
10	0	0	0	0	20	
11	0	0	0	0	19	
12	0	0	0	0	20	
13	0	0	0	0	19	
14	0	0	0	0	20	
15	0	0	0	0	19	
0	0	0	0	0	20	
1	0	0	0	0	19	
2	0	0	0	0	20	
3	0	0	0	0	19	
4	0	0	0	0	20	
5	0	0	0	0	20	
6	0	0	0	0	20	
7	0	0	0	0	19	
8	0	0	0	0	20	
9	0	0	0	0	19	
10	0	0	0	0	20	
11	0	0	0	0	20	
12	0	0	0	0	20	
13	0	0	0	0	20	
14	0	0	0	0	20	
15	0	0	0	0	19	
0	0	0	0	0	20	
1	0	0	0	0	20	
2	0	0	0	0	20	
3	0	0	0	0	20	
4	0	0	0	0	20	
5	0	0	0	0	20	
6	0	0	0	0	20	
7	0	0	0	0	20	
8	0	0	0	0	20	
9	0	0	0	0	20	
10	0	0	0	0	20	
11	0	0	0	0	20	
12	0	0	0	0	20	
13	0	0	0	0	20	
14	0	0	0	0	20	
15	0	0	0	0	20	
0	0	0	0	0	20	
1	0	0	0	0	20	
2	0	0	0	0	20	
3	0	0	0	0	20	
4	0	0	0	0	20	
5	0	0	0	0	20	
6	0	0	0	0	20	
7	0	0	0	0	20	
8	0	0	0	0	20	
9	0	0	0	0	20	
10	0	0	0	0	20	
11	0	0	0	0	20	
12	0	0	0	0	20	
13	0	0	0	0	20	
14	0	0	0	0	20	
15	0	0	0	0	20	
